0.05646404312048466,0.06217196388426754,0.09053001563816042,0.0888857889578223,0.04883265680006129,0.0964181493295106,0.0681490597007606,0.03212865086635087
0.065449534684853,0.05957025268915475,0.09089725959237828,0.06318760156953646,0.031175731193063938,0.07588433332835468,0.07387042570299161,-0.01591046868167699
0.06754710649370625,0.06924570572147716,0.10666175684036071,0.11963907365896041,0.041306074045991806,0.08740580943758453,0.05553999717932308,0.03532058452182698
0.061449325903914304,0.05676498894556278,0.08627439767917154,0.10050052451050474,0.048047057045701114,0.09283900160361079,0.06901936517986237,0.025930739542899255
0.055152744253395725,0.058349021253969895,0.11007267835497231,0.09547961310753059,0.05615970507285067,0.06997387143259645,0.04241478552555,0.05690613901382206
0.07162099447013531,0.04693920082698819,0.09328978159690753,0.08548726358228778,0.03009081076563054,0.08241608336767747,0.05491497470427414,0.029583775175416018
0.07011298469318568,0.06448288144613827,0.1184830127719681,0.08985896240565212,0.04989770537999111,0.08295361508460118,0.07993506234040723,0.0364217166560748
0.06250949090448554,0.0517622429299301,0.09845653116992316,0.08492895656317284,0.03675108165049219,0.08502279638555647,0.06318087940422931,0.02076705239655631
0.0722674667131091,0.03735205237085803,0.08950862726150215,0.10383400851719021,0.06484791565791403,0.06759529874642073,0.08376542615974583,0.057119800138620794
0.06081249165710956,0.05225031151890642,0.08432819890236401,0.10773616697405819,0.05557258581238384,0.08994607270647152,0.08978714981176214,0.07612608609287995
0.06186412902536969,0.056393806287677456,0.08078308021639176,0.0858435738904706,0.05663528907922756,0.051397736273735006,0.06199237890157787,0.04608897993655039
0.0638553991232834,0.05997096417514456,0.09184608554586521,0.09698540605335293,0.04178254696954005,0.05836433700585576,0.0769622070046691,0.08008002222060885
0.06774766372249998,0.042948555893153564,0.11581062439319621,0.09921423567576311,0.05768432201249281,0.07166790748724378,0.09388309642904413,0.02821911685576455
0.07586242120835474,0.04633574564813608,0.13058906133669362,0.09055506939498685,0.04382811579299846,0.07738410334015339,0.0783293646500647,0.012810873702879907
0.062000417050311056,0.06001332957277761,0.10708274390479784,0.0858684268503127,0.05975767752203569,0.0820486484397512,0.06477370023506018,0.0537727072509248
0.06690836940640046,0.045457705572023104,0.09506744224701683,0.08108481571303233,0.04563214749716661,0.06685910561688548,0.08646998049743455,0.06570692504821629
0.05715917179121848,0.035834259338449366,0.05166731576139688,0.09146471678286777,0.036497691162093476,0.06735549673289903,0.055813478025775076,0.0418120688705708
0.06419938851128122,0.0448628622638086,0.12165875092531507,0.075907611502227,0.04645574211950177,0.06261797638742948,0.11197995091174984,0.008680395275504101
0.049145156688279824,0.05368290984255307,0.06817374284696297,0.06338282443956884,0.0802635955428155,0.11605663193085941,0.09950613245125167,0.08076455932484028
0.05430260612692597,0.03217535580632148,0.08142394298537861,0.06897866495301645,0.029807436559804532,0.08110299986500703,0.06933206079619558,0.06296321683762256
0.049975679885441424,0.03940406818290033,0.08991160690887663,0.08601942867920212,0.04314817483845036,0.05030958611990571,0.04471735961125519,0.04506342302731613
0.05154190160567783,0.03379004726313794,0.10241596228056837,0.05373413289800788,0.04251024759172758,0.0777267852375911,0.06388456246897826,0.016650908219864962
0.05278691556086727,0.03838616474559857,0.0877031477546219,0.09941987397256107,0.035234122897967214,0.08656275445417101,0.02693778005733172,0.06074158040966996
0.05878891206090917,0.050501149519867276,0.08436397122787231,0.07908044421477863,0.05947898608568347,0.07861276525029068,0.024849188937342954,0.06241165934990118
0.03966791973679675,0.02291888243648664,0.08624065961331769,0.09352863993679625,0.015247878364139465,0.07952260869624342,0.031120024491456063,0.060582557717085546
0.04142412989054818,0.029330017939310744,0.06866359613048006,0.07679244850367023,0.04601665399856311,0.08480385609850292,0.037910416714753335,0.07334025997450551
0.025697803412704678,0.026653382729606087,0.09041607974734957,0.07084701923493326,0.0534905614494077,0.06806068843412325,0.041582046016178605,0.0175014474864145
0.024728155808360238,-0.0014127681723614344,0.06560247473685576,0.07220376871108389,0.021211714511058556,0.08357481140649936,0.021010659591727772,0.03915044023294408
0.03478679925494011,0.016302487400582447,0.10088519734244643,0.07188294372059692,0.0035660426762114087,0.0889483005224308,0.08822757973836376,0.027147312858029283
0.019940426609257697,0.018311477647845607,0.0637469474139168,0.06800655865645262,0.03683590512036625,0.04751279419226307,0.07045518892082898,0.06729907244735678
0.02938294193655436,0.015010400338506967,0.09782817934814043,0.055835020096307246,0.029897313513876648,0.051998257856854475,0.038677228291626335,0.03930856560742965
0.02145733479314575,0.019782745715447452,0.07243334160576055,0.09473895118847614,0.032040109173874454,0.06764140737424552,0.06504427167018859,0.03455487375231553
0.029286254759750562,0.004484972477218935,0.08605205731774154,0.07123181684670074,0.02162277061725718,0.06883578514058616,0.06523053868679282,0.044069517775217074
0.023414123018158595,0.03193819933658169,0.05995470608493308,0.06987836513269063,0.041794355410945457,0.03755010314710843,0.05944026125723499,0.03228640489310323
0.016787858208186724,0.006719584708385409,0.057680992290668406,0.06278519252039595,0.03459207633072454,0.07332290164365814,0.049911332337317205,0.08177891336196412
0.031020317528112032,0.015663589366327817,0.1007933771601345,0.05868786857842333,0.014227013464240166,0.06907983871984838,0.06763602289736569,0.019699340335858576
0.014207393898093024,-3.8577574717960913E-4,0.07097739401845639,0.05742939831091749,0.01984607237848854,0.085088794951234,0.01970983881070846,0.05750341810004477
0.021505595257518995,0.009874544009159937,0.08712584386786777,0.0752590352882182,0.014604324199719165,0.06030771430919135,0.03001992521801317,0.04889473440996273
0.03233555283213115,0.010660022976658665,0.10412974348369658,0.04771928343997543,0.021926771893663564,0.039171426189237565,0.039393778905722356,0.026193275039760665
0.022231572546181185,0.017064498792399744,0.052829160978946105,0.052187270606636756,0.019963106237439264,0.057991287751421094,0.047598616882952,-0.00913852545628672
0.0319847357838638,-0.010757313222019244,0.0717916430482362,0.05220967213729439,0.021972669964756036,0.04856626154525807,0.087360879682378,0.04981106269746049
0.024140518131829103,0.03603525687429959,0.09340542647721282,0.06752755862765034,0.05024786526176282,0.08797506017287045,0.07272069779143561,0.059361396037043476
0.027373925098061035,0.01892344245288363,0.09081429196697972,0.05606221856338604,0.016809695337532373,0.05400946812026703,0.07368112348710992,-0.008691523001902223
0.025650224849296334,0.006015745724886862,0.08656920385254116,0.05525204610528978,0.036374782067265646,0.09449391313652968,0.10542965512542861,0.052278739964143235
0.02649456062218977,0.013185625482616748,0.08961013417008384,0.07337883076733666,0.02967879167013028,0.09335920763108847,0.07031791039834849,0.04103296815405582
0.016008806866995944,0.017204944692398475,0.10926374850434593,0.0748286600663869,0.043132727301759835,0.058002135755677774,0.10549420500649422,-7.310164493949433E-4
0.011579357397729532,0.009967790806057624,0.06323103723088255,0.07612489946751078,0.012628838004954093,0.07396957620079384,0.06588826172210921,0.01807443471916924
0.02453695351114137,0.013959835192100376,0.10882850889905431,0.06386668542774007,0.03940523776886734,0.06945811926923626,0.054946408497189576,0.06570453666197729
0.025831127368320418,-0.009045846989753267,0.08829252977828393,0.06322107986554483,0.051751917996538846,0.09934626493467835,0.01212525842553667,0.0566494710180693
0.026851134824071896,0.002407790428130099,0.07495406258594288,0.09409377203959877,0.046637015782503524,0.06221867608154616,0.04796166387395003,0.015004288222925537
0.02062435924064613,0.027149043799526276,0.10835214593925396,0.08007137212387272,0.05313557741509937,0.04584050491412828,0.060931073331666315,0.012057735324001055
0.047403048932634244,0.0464595566693432,0.10876809143264848,0.07726774351061717,0.04094713451749915,0.07114559560144519,0.07082061796798371,0.0939144262847945
0.03996016192785025,0.014651736544461273,0.11972346551754227,0.07577242920578119,0.018865328253501755,0.04867058384921075,0.09677802837077028,0.030209202160555712
0.024400799778248862,0.0017284707010585237,0.12525069253827267,0.08171787313163843,0.0035224657811549717,0.025286795339599436,0.060784889377551776,0.0140964021819771
0.02309701152879913,-0.009401970514260564,0.10078727020289803,0.08399636723449723,0.040375362585810225,0.09130411644314314,0.05419397929133895,0.030737293586640003
0.016663359585540667,-0.018075972846334627,0.08826604131292415,0.0721547943588706,0.03740389340976029,0.0036554236217425473,0.046890104935023116,0.026011114101374494
0.029815696501744482,0.0028772015425312355,0.10456696619460114,0.06974107240640015,0.03646571685390997,0.050142249128010824,-0.0033993714985467716,-0.009667143216614911
0.016242451068607843,0.004263870464649121,0.11309873023218868,0.07343646612270041,0.023932498587690705,0.03234493942381001,0.08606246906950253,0.016295784708008163
0.017767549388436416,-0.014944925172360981,0.10604688091691902,0.056350262372936874,0.026590382795761543,0.04376568135837347,0.002863907787115657,0.027795350024895474
0.01883470555282183,-0.01928848044532982,0.10647888549975786,0.05384050274055714,0.03598708621028206,0.02010780325591855,0.036220808745857785,-0.008261974969032394
0.009296394632872886,-0.001328123873936919,0.09671446085856841,0.06352011005795802,0.01156580435331154,0.051785072427338,0.021548820084178796,-0.01831237140534379
0.008273389478673808,-0.0301016494400474,0.08365658886135748,0.03411256705798507,0.03573922087338426,0.05174214213765101,0.06109389536410761,-0.0011679819580290515
0.008191295568416046,-0.03251644126726563,0.08686517126428588,0.06202474838164438,0.043655833364113945,0.04185997572226922,0.022901064243864573,7.788065003349162E-4
0.004588291988108994,-0.0314486153813773,0.08759784131657726,0.049868442543191796,0.018727725873114647,0.030526782857609253,0.038409789969877844,-0.040870407727061665
0.0023329003944712293,-0.01726843769517837,0.08990931926157583,0.04593671972282921,0.03416869200206029,0.07357508050403709,0.04374311607446825,7.781113023598337E-4
-2.0029319404246532E-4,-0.022407225936011212,0.0987553045870799,0.04274458562047357,0.024364183881332532,0.04912417539553332,0.06260333431732859,0.01199388528832138
8.210963458927527E-4,-0.03421167623879781,0.09941241598008986,0.0514627047551862,-0.013856753644641511,0.040205646497313646,0.018060478031885586,1.7345379077656398E-4
0.007729751642545142,-0.033223547039288544,0.12076866305254999,0.05522179101059761,0.0181921194483078,0.08098636754374483,0.03913193416133458,-0.025597082097576405
0.019942632196906906,-0.04026115662290345,0.08145868884805137,0.0691908076401354,0.0234563745405732,0.028945256095531714,0.06340775293872655,0.020397007684184655
-0.004206250377082726,-0.0386574775424628,0.09163397395436555,0.04926504164899107,0.011385477661048315,0.02685525649762941,0.04962523025230388,-0.016792389313148963
-5.806137311002983E-4,-0.033427742182765,0.0931010453967299,0.06149675746441536,0.024458972373197805,0.002584465974017926,0.010950320380109657,0.014988998763947844
-0.004816155291158982,-0.05033922916854239,0.08271982117185268,0.04898782309514101,-0.00744963276999163,0.04890609987862295,0.0154928722637493,0.02666243417972148
-0.003173323003864398,-0.03554442927493221,0.0653209859721947,0.04470341300060412,0.034896317728513475,0.028460137518401814,0.059951740601308215,3.051004125247108E-4
-0.0082156618671654,-0.0316142527312311,0.0940661795711366,0.07046510566357649,-0.0013780223211163941,0.03622539353501122,0.014962342553363952,-0.022256310300752896
-0.005124271410501911,-0.027023237894468945,0.08292503407917157,0.04873332036107625,0.03158313137252994,0.035404766562221024,0.024602010548390528,0.008817813553486698
-0.010393203310484388,-0.05341056914661234,0.08155578436730986,0.06664561694299251,0.032866189687605143,0.03759658103553041,0.059514647480049726,0.0028777705975428906
-0.005951268730916739,-0.030438570941568155,0.0914026105803369,0.06456585668167034,0.01165579969358711,0.05922627331364996,0.012352709145795521,-0.036353968083736574
-0.005601802164308019,-0.04121359143957171,0.08431689950386333,0.0675263924927416,0.03161298404667261,0.05521648097640864,0.08061415825902568,0.0173387612085831
-0.006162527455320842,-0.0510291250409728,0.07718079552311155,0.0700498045807082,0.006820066757906834,0.049844673547705914,0.039569000187113464,0.058654540349980695
-0.00807503303773,-0.023757207481534325,0.07046296074003389,0.07499891731179023,-0.01707609161352839,0.07049675608922318,0.02629643327659651,0.01068818923847436
0.002941598011656273,-0.031103541060095972,0.1070586171018746,0.06427851949202439,0.013803389735989208,0.013026326380474311,0.06947060912147968,-0.009941698493911652
0.020113755204154923,-0.347712684315645,0.40250987087815854,0.21184589702045706,0.07865127376393662,0.20630461811238848,0.4173764717801916,-0.5817854373028999
0.03737766342498741,-0.43735127435581467,0.45139458188074433,0.20923290043285267,0.07981133678163521,0.21553837543227175,0.5139556058811673,-0.847842830361542
0.04310580988034894,-0.44336803794775587,0.43839561694360496,0.2190157193347868,0.0625220077170792,0.233219565912664,0.44238379107103804,-0.8970355930476656
0.011820021065553158,-0.4337255053182073,0.4631327171055401,0.20887190154533225,0.0964175347025609,0.25123488950121103,0.4287483672540017,-0.8445536811724701
0.04752553359065323,-0.4600522812682326,0.41065100026259754,0.19473626761006846,0.08117710637105313,0.25486856282290227,0.482114199809191,-0.9156668074253214
0.027484713898105816,-0.44571476645108987,0.44592517069043797,0.2014662230638158,0.06997885617989558,0.24719879938897837,0.4643169295557197,-0.8840923660986477
0.03128499896780168,-0.4404353995316059,0.44481957948993517,0.18903514972147972,0.06609757925609641,0.237714506143587,0.4487540278313454,-0.9004611446994447
0.046602985574465516,-0.4276184117956463,0.4380105290202896,0.21550753031571665,0.09013267072684641,0.23557047292053054,0.4728121415697826,-0.8695000698202905
0.054141289411540214,-0.44475517879322546,0.44579982006445396,0.1969641282309124,0.07275996047794851,0.22699715826299846,0.49280619266977177,-0.8829726785833224
0.023891920921294135,-0.4412923344020865,0.4488778689365267,0.1839584940231218,0.07119594627424408,0.24064579249693663,0.42780848374532027,-0.8855312226716744
0.01927881383711535,-0.4400734480954326,0.4385398766769503,0.18951992168361464,0.0755789919490091,0.22980409850918068,0.43805896392529525,-0.872369153124031
0.022734179343776466,-0.4341435900498748,0.43508435244314225,0.19997694301670466,0.07256997242122565,0.21961321148229312,0.43275258268919226,-0.8329318732149797
0.03010097505802705,-0.4624329583941635,0.4444532083144418,0.17094102734966116,0.0866503718472266,0.2052560899570428,0.47965340957749286,-0.9521404900975324
0.011166319241622247,-0.47198482485666116,0.41180637507906254,0.1843489902237259,0.06061341849195431,0.24929469792831555,0.45697630894206387,-0.8699095415682199
0.023541778448793647,-0.4471301222421089,0.45545290371618896,0.1592454516228739,0.08984506404720269,0.24162866978542463,0.4653486971652506,-0.8468299046011479
0.018363324319188117,-0.45660114281246755,0.4014550867979333,0.17206925502049503,0.09059557250033194,0.24610904648684903,0.47294577532670473,-0.8921219657707059
0.02063056134808479,-0.46129810764787765,0.4211170352142307,0.19028080052661023,0.07407024535684578,0.2515031364898297,0.4725907555990516,-0.8921122563585885
0.028463645466143814,-0.4590761649302625,0.4325554998962434,0.17841331898082016,0.07483494832160797,0.23172646890713805,0.4790279119305843,-0.8332823479670262
0.0268447159270014,-0.4481773809262207,0.44093755502098336,0.18297992240847016,0.08053431835924083,0.19320126537920573,0.4403116907407999,-0.9039337165719594
0.02395370298363335,-0.43759954336745405,0.44706139990977267,0.17624507319867413,0.06966404321603496,0.24308102653982497,0.4469885752275921,-0.854627231712893
0.030572917197677782,-0.45875268034590944,0.4175354503035203,0.17800848611220518,0.08414148165796058,0.2337740864190614,0.5198608478809976,-0.8074484560304299
0.032129245496821356,-0.43248601683210686,0.4505162562358744,0.20541409788640652,0.06604608814217271,0.2580924766035263,0.5143226912128248,-0.8516179705952293
0.031021819856028233,-0.45896552389728246,0.44456695954219133,0.21697740268290713,0.09254859725333789,0.202579973978656,0.45029747131153847,-0.9238147940293739
0.025177951821339698,-0.4596544332316342,0.45488432075454255,0.19664649660079903,0.05658018779722413,0.22975685593633113,0.5019851084571514,-0.8945429858305775
0.022809370246318655,-0.4441743975125347,0.46140647686418335,0.2045093172649714,0.09478407273727425,0.27344054997666883,0.49698379680542537,-0.8551549029732467
0.03851551381061493,-0.4494167413754222,0.45491824886003446,0.2218098494044489,0.0946061719594725,0.2384166715135358,0.5248502543356366,-0.8474884001219823
0.04175400866775474,-0.4182866476431342,0.4835960764434892,0.22334496263978867,0.0963237093010026,0.239032696677112,0.5071122447652607,-0.8383664137911377
0.028958339265190845,-0.41968507431017044,0.4609027314432708,0.2097878611433692,0.09374419390613785,0.27433295161812254,0.5044689198824412,-0.8564426018414126
0.03174797868774791,-0.4369008769505234,0.4580751205361352,0.2120276875987305,0.08344833559819231,0.22934425078746457,0.45305599802992114,-0.8398977534197266
0.028181279268363064,-0.43204388377123204,0.456183258036866,0.22050948399333134,0.072080198856398,0.22449648170000203,0.4427919610079537,-0.8592368838735802
0.036542416458104354,-0.4308160081685691,0.4456699597216426,0.2343148212706068,0.10984097344644583,0.24834101272475606,0.5317962253207196,-0.863647447550139
0.04702415666609821,-0.4250567154755146,0.435207741255241,0.2156661144094327,0.07721031839306548,0.270289431652538,0.5007004647997029,-0.8804786845277669
0.05038055039791061,-0.42791910711969244,0.4702237709544354,0.22834334874795884,0.07838223164870028,0.2614721718013207,0.4595944855951443,-0.8800977996654447
0.03816695509074494,-0.433862003871954,0.4471225556152491,0.23572075914306106,0.09751127263380331,0.2597210710298757,0.49082389577738056,-0.8118534341798843
0.046642529438506226,-0.4142747114055022,0.4843667828011441,0.24045564047857604,0.09348239502743026,0.25038307187111164,0.516727276112202,-0.8487890483508728
0.057035130135184554,-0.4051250111273872,0.5039793463547295,0.24885957395679612,0.10382214935563272,0.2565064598135651,0.49613786975267216,-0.8417449175133662
0.05158709350321782,-0.4166250041321688,0.5017841646676097,0.21672359063089672,0.08730382963205315,0.2296787249782761,0.497371203272947,-0.8789503945209488
0.03711271272086735,-0.4051210105232971,0.42634855995827137,0.22474079682978693,0.08164417414347577,0.263149119139041,0.4885048688295403,-0.8589069869016814
0.048641905927814595,-0.43345868937132215,0.46914392449276926,0.23668388414659727,0.08369330598457496,0.23430024178543932,0.45905102458443486,-0.882497330369149
0.052331647088600566,-0.42390552087340394,0.46132746833134536,0.2261555369915618,0.08089472506293272,0.20901689180083594,0.49649636695251176,-0.9044051422145772
0.05483364664514776,-0.4358170023893004,0.4545049121877127,0.23906554588161363,0.06105141362382986,0.23144068034718238,0.4696787351177429,-0.9251601445593485
0.048978907888967804,-0.4357234540933561,0.4632789703124619,0.2193030525680395,0.06459538326251814,0.22783980439440968,0.530260628762851,-0.881702749897182
0.02913878990009886,-0.42551165415602743,0.4501776757243222,0.23586575261972761,0.07229876478787048,0.19374669048141616,0.47319340080001,-0.94484634782922
0.02796087367657017,-0.44900115621505154,0.46201146618283095,0.22550385562353287,0.06605736939395392,0.25651852589895424,0.4661884549066458,-0.9089221230325412
0.022442795074027338,-0.44616272717650673,0.4462362786908241,0.23738088421764858,0.047186172160532266,0.20745940652731498,0.49490836079494877,-0.8842584991226408
0.030812040608158515,-0.47248251036806527,0.4782406872032059,0.2232395203923607,0.06819996945484681,0.22179431220847043,0.47908962310415576,-0.8819724325600063
0.022200830507011157,-0.45608056197320546,0.4446520710956295,0.20247591922344466,0.058649408721395,0.2036281251259604,0.49166686866869613,-0.8843363338418764
0.017039223143144735,-0.45018691254858517,0.43143758112500596,0.20797200222012413,0.06074361854166973,0.24774645067555295,0.47419598550314773,-0.8677564508151143
0.01793084144850386,-0.4573584055982224,0.41430442736193684,0.19512888268967127,0.07566465340893688,0.23744506865988393,0.46852307560783696,-0.9257182680152541
0.0306864633320233,-0.4761233791667561,0.4599458016108722,0.2039429791838875,0.04098078966762976,0.232813865941883,0.5033139786993445,-0.895875613812872
0.02506351161345518,-0.4525765937912061,0.4069555567237441,0.20979452274478494,0.07988798752819995,0.24649536200918976,0.5047835134238695,-0.8584959698632875
0.030016832462286876,-0.4589041940432449,0.4415234240292167,0.19985933269299488,0.06831482759893724,0.24216238673071153,0.4798488481896677,-0.9138211312610334
0.019478504937893344,-0.4661870581375736,0.4449383328292933,0.21452377211345008,0.050697673578195275,0.19792480414926625,0.445956440766963,-0.9460479527621927
0.005471697224626704,-0.47632440905532336,0.44341213858992073,0.2194354598024967,0.07772195528783105,0.2312536459735538,0.49651986803085624,-0.9068787303909708
0.030806559818408918,-0.45989754915939546,0.4268854202281511,0.20705905436118446,0.06295669610907609,0.2249565759317605,0.4393413209530971,-0.8616065952928017
0.023587773051961143,-0.4588905343291918,0.4350328854544329,0.1913650240281774,0.06388424195235029,0.20559144936295093,0.4490467458258253,-0.9189295544002566
0.017822959681460318,-0.4634693728471708,0.4375695282391322,0.19813596783915158,0.04847948517354515,0.23583485701940193,0.47901056224182786,-0.8852833045643526
0.03142652342739608,-0.4695469408121879,0.4514535164753176,0.18951090417051944,0.05369284922539032,0.22933550820811943,0.5077332623236585,-0.8719942385961362
0.024941868846719204,-0.44895364852731473,0.4156474351938724,0.19299832070200937,0.07001987376734888,0.22116452818004317,0.46393897171824394,-0.8864089441873053
0.02595202202312396,-0.4697745097513889,0.42576864243405077,0.19716158157757221,0.054418874702993905,0.20471243785536947,0.4753848990974263,-0.9088079263051193
0.015202378902552946,-0.44148239767641123,0.4314137615346286,0.154053118536165,0.06589901294189439,0.2311216590227634,0.4641528483232451,-0.8859462699676739
0.0235415642160646,-0.45181694426239016,0.4607201474349189,0.17861019938309874,0.07895976690825499,0.23884067046884772,0.48268927354833113,-0.8770081040068609
0.017413351975627822,-0.46031035902461487,0.42604455615319287,0.1707309239838272,0.06177789126679762,0.20656177040338297,0.44935919192712726,-0.9326665621054894
0.02654864531603441,-0.45886301086161063,0.40687588342067693,0.17254769756867064,0.07684334971831559,0.22373943747600933,0.4330145725154902,-0.8409433496095824
0.03186914139529588,-0.44952946852875136,0.44333836779346303,0.19969857836974092,0.09584348247036648,0.2068635717947647,0.43533109354119964,-0.8809221434657987
0.02602645021833518,-0.44765729007559857,0.4526736095535094,0.16906064707332868,0.06367654194665828,0.2251952398388382,0.4338845013199352,-0.8823163639917513
0.02684010957908525,-0.46939971776157213,0.4224027780357155,0.16998698442636712,0.05513446202240122,0.19590054141305693,0.45049197509713707,-0.9076547368749286
0.030595275584861224,-0.43984486615032203,0.42275024591960525,0.17720062302526074,0.07681120615368381,0.2311562122876157,0.44147721726139305,-0.9067717322109116
0.03700156822073203,-0.44050752301188845,0.4469177652327991,0.17179949840231507,0.06134636624811795,0.2262018691446396,0.4468199068260743,-0.9060936446407252
0.03584722956665731,-0.45353899781495655,0.43158927748930753,0.17422230660880716,0.06435781443005528,0.20582918931704175,0.4527690299805855,-0.9394510832697415
0.023287948474559755,-0.4550492544469309,0.4383361866410452,0.18434082428547527,0.060962307252708896,0.20456452991674287,0.4328653305126683,-0.8763017994259826
0.03634078592507083,-0.4419885109849189,0.45978115574554135,0.17986933196476707,0.054695522445358156,0.21554483824203416,0.47384531544830194,-0.9072795653083742
0.03350404196143262,-0.4646357458671567,0.4347589549176362,0.17167931707755973,0.054468644621286956,0.22865220666653033,0.4210145981676281,-0.901286027366546
0.03689850503626089,-0.4573025861975655,0.45418933341991274,0.19341542758114974,0.05310984670057064,0.18970915593839868,0.44915460297389875,-0.9584989125208744
0.035139878079243354,-0.4590483974706305,0.4573346902354771,0.20172695156079223,0.05262198118404463,0.19148183213123576,0.44289925528606894,-0.8892152901818193
0.031231185171721184,-0.4451572787390737,0.43609858115480077,0.20456341862184427,0.07041251304730411,0.22048557651347772,0.48876653275907195,-0.86924142088547
0.03106640217502319,-0.4656723432216823,0.4527121586697277,0.18354630380503034,0.07105033731690802,0.23635309982622238,0.4116706062735438,-0.9536978811649672
0.034119349718032765,-0.449844387763036,0.44313029941478366,0.20723570287110432,0.055627828891313603,0.2049982770661001,0.45551946501894747,-0.9125530032281942
0.027598033089939918,-0.44424800803207976,0.44780407653291693,0.203649727999556,0.05798598495117192,0.21700665467182567,0.4429362763537106,-0.9035781597612466
0.03316420275829005,-0.44081030623750256,0.42844787138664026,0.2169641500065822,0.06214945555935987,0.21273071004449945,0.5074490857135612,-0.8770102607301704
0.02424029499078609,-0.46468380449932917,0.43611465066288835,0.20288839743020454,0.03573076301672445,0.20294798384717586,0.4714104204262561,-0.9265908118164932
0.02638009000720934,-0.46157902013932,0.45145063860166595,0.18438291529318596,0.06194754139631131,0.23097346292034762,0.4982221042219768,-0.9013885430836629
0.0327783987698795,-0.45834729697791804,0.4524245321641565,0.21989226656617203,0.044810368297944526,0.23246042074320347,0.4676636657286237,-0.9390205614225011
0.0315199027998216,-0.4586364054155929,0.45287228107050387,0.2068332103928443,0.06152353850490193,0.19875387743994571,0.4326164305515809,-0.9070262633647488
0.033705518129323965,-0.45799302926538843,0.4601534768219812,0.23092810689756857,0.05499982606993035,0.2134687423139483,0.46703316126163,-0.9087152421940594
0.01915380585627946,-0.4578019374293281,0.4550413155433243,0.25315093061195826,0.06912273490009965,0.1748001395295765,0.48322361984278644,-0.8629472520097965
0.014086359011117806,-0.47732396525019216,0.4521794740398257,0.2292438256687146,0.059673744165645345,0.18915318964955496,0.456545680820063,-0.9025913970055096
0.03608775693374471,-0.48140944902969846,0.45315480674994185,0.22192802041594084,0.05237030747249155,0.19218384275609235,0.4703457397031583,-0.9523237370210231
0.017017233398260917,-0.46063131405678237,0.4750354335139697,0.24932865548346073,0.051173768338427336,0.20944621714620698,0.5078506428001537,-0.9222392024526963
0.023196280527660547,-0.4788707883232771,0.4768648748028764,0.21916664590228524,0.06017850955562032,0.18746885576575717,0.4216214554913633,-0.9146234264530065
0.02209156157907238,-0.4736018623783605,0.4158518380812182,0.2241182956703781,0.05186970422889289,0.2044191728597038,0.46265292367094496,-0.9427247136999206
0.020062696720430515,-0.4746414030602456,0.41809312307837276,0.2263046449692109,0.027379041869324456,0.19372635080672665,0.3866936071761613,-0.9551304089399832
0.020954076068341033,-0.48983686314917474,0.4168382552814204,0.20064257237951305,0.06791103224679242,0.1723300966880271,0.4835552140495773,-0.9287406393845169
0.01350809138273454,-0.4817960802697824,0.433008960683713,0.21206983343851313,0.04396568645495329,0.19606319887804796,0.4674479260695117,-0.9574643358116866
0.021678106315980536,-0.46988332803644345,0.45564373124858537,0.2169274648698698,0.04685897823269721,0.21930334869384607,0.4573357668290297,-1.0061930683498599
0.020736873947812776,-0.4651050517328602,0.4459913734305334,0.21729258513671174,0.08933522100842324,0.21537482698546995,0.4547935123523181,-0.9114209271516274
0.023121931875997582,-0.48277301135529715,0.43769894704334167,0.2403396965343975,0.03494987979883409,0.19071707973152027,0.4718700772375442,-0.9050883698906549
0.020831371281205113,-0.4798295183224132,0.4308970238717975,0.2164396875604994,0.06616538593285097,0.21241126137144972,0.4635273698449237,-0.9435566151137922
0.01598900047086241,-0.47196939157552414,0.4446791479609603,0.23109196849039504,0.05504370041646655,0.2027654312585105,0.4630080834044755,-0.9537388111971733
0.022068477019999116,-0.45300678428084934,0.4443038330200037,0.20918755793943225,0.04575927601505115,0.18955629802115134,0.5032743621565577,-0.9598298793545615
0.0223885444664712,-0.47338234696801706,0.4684314024410282,0.227347123232052,0.05347478018954523,0.21423396894444624,0.4954361791223538,-0.9376618478331276
0.012848792039693234,-0.4826001490602336,0.4580318763528985,0.2313634829984972,0.038924441736031365,0.2076361341401503,0.48746194357928446,-0.9832906440993231
0.01496069769287039,-0.4579149538646738,0.4299394694936275,0.20825047762618548,0.07802768847120962,0.18693505567192517,0.45275995960508636,-0.920148140083997
0.028852691517326928,-0.46810677637951803,0.45247874572995045,0.19646808811778332,0.03818958822285851,0.20881318165895835,0.4537674129817517,-0.9592988587577331
0.03148132226079894,-0.4751843974652034,0.4614221166525153,0.21675492318279452,0.04982727714707018,0.18272879766089287,0.4844203141765858,-0.9892706554915621
0.01435045054163296,-0.4687810791254783,0.40842291988594476,0.20092824779227958,0.04444264626873443,0.23921198848475414,0.49875159888395026,-0.9512438891947913
0.018019750023500744,-0.48381044998649236,0.443134910595769,0.20788984500291935,0.04581169581342945,0.20548392513063177,0.4526390618987453,-0.9408290576815499
0.021968805718974024,-0.4774646644548849,0.4380929449712002,0.1904728050950409,0.022672199562314973,0.21761760497009391,0.4893191724913525,-0.9480576061813695
0.02646288908745049,-0.4808202687078688,0.428841482728871,0.19177625689966646,0.041964977642202875,0.19463259264747623,0.5164327868893753,-0.9843897248141669
0.018736489935099243,-0.46062679745888924,0.43741119916930293,0.18369248883220368,0.058661961268147725,0.2175897408143933,0.44543713360880444,-0.8925434863241634
0.019529901637586444,-0.47247857246528807,0.4228798888966529,0.18432603400684047,0.028896905969120444,0.21792133695291907,0.4479930519559765,-0.9221758623771035
0.018243019254349454,-0.48327818015157403,0.4547969188945483,0.18998903735289935,0.0539153564564876,0.17485666625432345,0.43371360577049173,-0.9890804976974273
0.020228249549703335,-0.4704096037068975,0.4237529399503295,0.1771161781979315,0.056876775370828386,0.2029602072396964,0.44298503508038856,-0.9339077509339475
0.023315531964766895,-0.4727616693595711,0.4270974053312953,0.1756990606631902,0.06372831836057012,0.18965166098774838,0.44934189815111325,-0.9802231675076721
0.023726004074396585,-0.47643119468612594,0.4594591100415182,0.17158033089443334,0.029361585135474377,0.20297736725323773,0.42303162259957766,-0.9834001327450993
0.02930607014209435,-0.4709982957519198,0.4611278703789861,0.18752207786801203,0.024541570439708463,0.17124207759536417,0.42521567524719855,-0.9748986476459491
0.013688703406366475,-0.4715834626378912,0.47587573041569015,0.1656213984970482,0.05688031605243726,0.19997491131206976,0.44344251141948143,-0.941967307886016
0.018764947078561245,-0.47054232502486,0.4266053507250633,0.1775480511899951,0.06965203080893152,0.17162818880326022,0.4107207774260923,-0.9750789175679407
0.01642337028863715,-0.4606709038697684,0.4284594032728418,0.1874075964202559,0.0532770481802167,0.1831700429281217,0.436108078852042,-0.9516766297694575
0.03609127631368259,-0.46317742067037676,0.45081290550197467,0.16426724822992797,0.04261054242616495,0.17117784802991623,0.4333575634309108,-0.9632755179439656
0.016207815286966097,-0.4670945325208493,0.4261279049138644,0.19050045002934127,0.05342089783368469,0.1837810257366676,0.46504641273888475,-0.9459299684046634
0.02479943830909937,-0.46296048598843936,0.42129021473607103,0.19362693682912,0.05970994295828657,0.19217952541064942,0.4441122641488853,-0.9446203758295071
0.02438304113437409,-0.47964400507584143,0.4417335380738366,0.19508805764441509,0.03157775414698013,0.18402197816675653,0.4210667730939652,-0.9407678969804353
0.02681187036188486,-0.4524988691334412,0.4687101684077728,0.1824298770767711,0.05100606944235253,0.18453447874370807,0.46015756963860566,-0.8967044986486064
0.01711276976829598,-0.45165325742581186,0.45077655055599836,0.19558307040477088,0.06987506995846259,0.1688488673744612,0.4499130887126958,-0.9160541348350552
0.01805214929914868,-0.47222918911571793,0.4325814898553927,0.17023254904225718,0.02587349834524751,0.17194274603047538,0.4005765918718426,-0.9839091673441182
0.02627071609227143,-0.4577600229604214,0.44454752864491737,0.18394864250418388,0.033220912698497716,0.16291807912133455,0.44132117283085304,-1.0055130527893905
0.016320632032952323,-0.4678441838857168,0.43812935969523265,0.17917469224740457,0.05782985296667806,0.16781628357878106,0.44492087112277623,-0.9312959927748398
0.01839294593639974,-0.46406432816799176,0.4369827591580098,0.18899473452560123,0.039643806584914815,0.1650519198830095,0.47198946454148694,-0.9616350256141405
0.03451624261453586,-0.46926137225062586,0.4534078115011782,0.20187875934581753,0.06020159780487765,0.1519362242207045,0.44266665214436024,-1.038556337966122
0.02333937830185597,-0.47711060113393694,0.46026532178883556,0.204339237456836,0.03790309568720916,0.2086252580595227,0.430607709350365,-1.0169459942543462
0.022358256465820046,-0.4787285961501265,0.46494501695540075,0.21377662123474075,0.038739241853814874,0.2043789747684321,0.40075919787856085,-0.9725715133559195
0.031492026132755625,-0.5001098691651183,0.435072479636796,0.1982149285077593,0.013621831705820568,0.16498877070673482,0.42389492940093854,-1.0300721652660831
0.007526648219927404,-0.48534608830855674,0.46352554052153,0.22084046021088988,0.024348904193282075,0.17792757118553704,0.4095058728304162,-1.0042247789009688
0.016203656883828913,-0.49673857271845134,0.47035363129272767,0.22086374604286593,0.03268591041283143,0.17896877584131238,0.42194337136996457,-1.000683256136599
0.028503806291793388,-0.4886445855721901,0.47813065370987434,0.2223606583032967,0.03593544163852042,0.15645310523482014,0.4231679269283752,-1.0436399540074415
0.026726646566235635,-0.475116267350289,0.4852339666483197,0.22728979978134645,0.02958677438727359,0.19996091510405117,0.43359720833941534,-1.0469183902355128
0.0049977339410446145,-0.46908336682574825,0.4688433275124262,0.24657225443848588,0.043083665335732414,0.1661161591243505,0.44679755310485286,-1.0027132712307552
0.014991155177528949,-0.5024214435754951,0.44373529475165063,0.24535898271474244,0.03659980003682364,0.1602952845339013,0.5027135698692046,-1.0184101366974463
0.011976019076159876,-0.48334196744193897,0.4609940400213839,0.2546128149339787,0.02583519869630508,0.1752042154598089,0.39701972592730855,-1.0123777521678756
0.006453052576563228,-0.49937541154359155,0.44063788319804853,0.22648137159452905,0.0160433568469619,0.1552631143838899,0.45585549943709275,-1.0410920960431764
0.018080955467023357,-0.46351724515802895,0.46191425709222084,0.22826097975705512,0.03581738073532878,0.24734017136875813,0.5062912980394372,-0.987381694086963
0.02622489980518445,-0.47834354505097926,0.4537824793880264,0.24431004667935538,0.02222367743607496,0.18275111457357346,0.47194466276511476,-1.0376263038604316
0.022648325743419236,-0.5022839599537192,0.442782785736972,0.23969494604320882,0.03456552096384977,0.1827570928988353,0.4578407617947579,-1.0627119175822672
0.009656202350764191,-0.5033953643448046,0.4606381701742629,0.25254713762840825,0.03744173294736206,0.17550637161800672,0.45644620353390886,-1.0088753303513553
0.00867980179775749,-0.500934531569252,0.4378041235088697,0.2416811392853067,0.016128125462385432,0.2020924711407979,0.46724929952318495,-1.002009140226092
0.015600146574733088,-0.48887226091822067,0.44714437987700095,0.2632375160590596,0.027040244379544574,0.1742241229488709,0.4849924176490396,-1.0175105856598494
0.02372520661380422,-0.5036692043343064,0.48803967014252064,0.24250166145781166,0.00813150304342751,0.16482197824749792,0.4731501766807716,-1.0336838807403348
0.016294619049118907,-0.5028843106147379,0.41566156091465756,0.22966971865074698,0.03872319152438883,0.18953124190172863,0.46680918994570975,-1.0322607011200156
0.010208656559534804,-0.5089277096045742,0.44339232361825914,0.2460413562606972,0.02913423655919499,0.20023066661694358,0.4379908296968292,-1.0370489388936668
0.014417393801310525,-0.5274354449716546,0.4222835707675208,0.24782057047593206,0.012207326153857239,0.15554532629578915,0.44268419809450216,-1.0362694544983875
0.007591127086127468,-0.5036330944249678,0.4437221615158943,0.24666979100221,0.05267401053399091,0.18842191875913236,0.4888587331339693,-1.039199521763159
0.022076195260443878,-0.49927273408782014,0.4357962710578681,0.23901368628914096,0.04593566929247426,0.1829210888875433,0.4773897381362526,-1.0542737344707094
0.02176354855598346,-0.48453173882900497,0.463056190641208,0.2325352634960031,0.005923900178098724,0.19690927869417346,0.4651825160143576,-1.0346073952865815
0.017889277350314998,-0.5017833514831745,0.4566020610497165,0.24204566465488775,0.016992272889389197,0.1754649719434685,0.5068820203872535,-1.029384198532205
0.008224555803541029,-0.5184922245727284,0.42928304043590076,0.25092652187850084,0.01880681709333855,0.2138167407698757,0.4965312599910146,-1.001931162324102
0.0029647327278799207,-0.5037442220205055,0.4286892717499133,0.24884381973876812,0.032164598184975274,0.1748413939731659,0.46124298564281857,-0.9989472766847585
0.006022016745678919,-0.5206406247799396,0.4438408926059398,0.22446517036097666,0.01924987946033779,0.15847614320430106,0.49105757371487163,-1.033913950949982
0.023883294865097583,-0.5007676802296449,0.44690901076036305,0.23036715461190405,0.02531007667727123,0.21376666949905868,0.4816833192617582,-1.0075282487845365
0.011173686687738668,-0.5096418478424516,0.43172829400283597,0.23258862512589087,0.04642135767841823,0.2044341484350415,0.5060523639891562,-1.0458872247989188
0.010304981091083245,-0.5100382218022009,0.431093992210676,0.23268285820420742,0.026473614650457767,0.2044064827643678,0.48814924486590705,-1.0567550655262736
0.014392763933689944,-0.5220601009862379,0.4375258526053465,0.2250247625130198,0.027283885498453977,0.17184527279411657,0.47186044386998793,-1.0398905098950484
0.025453134219067818,-0.5036550340656124,0.44055961321563947,0.22981050954742008,0.02362757085922734,0.20309973024706882,0.46069064597744785,-1.001380703072316
0.014072369361809054,-0.5127028328671962,0.46824693791023175,0.22207794405594217,0.04095055908042714,0.17754919730880883,0.4479311969960605,-1.0252341891677659
0.00601668832289946,-0.48920636306897813,0.4548553502232779,0.2422462040253442,0.05156598383643232,0.23348482504380375,0.48132654885657505,-1.0036218386869813
0.009730081462913404,-0.500502833175766,0.4331964936020285,0.2177870082707527,0.04852185055692822,0.2000430316910155,0.46799902440755703,-0.9826969322087202
0.009711866488050612,-0.5111796152402409,0.4625974850388435,0.21397672485874833,0.0554649037581286,0.1892089307641029,0.49817213819924855,-1.030745545353058
0.016173159798257414,-0.527109730437859,0.458434441235089,0.21913033977297122,0.047083523463087376,0.20427563694866316,0.4867107683596758,-1.0412665419473095
0.015162602421853901,-0.4939319280758765,0.4655040080261036,0.22594067246026767,0.03492351639104258,0.17721642152141126,0.43793642143224826,-0.9968593058678377
0.014944110650131607,-0.5016559859006778,0.450253574186579,0.23163453843581544,0.04159791895692067,0.18969338952907108,0.48332562000217916,-0.9722467914874685
0.019722634092569566,-0.4955613007713447,0.48781889484349905,0.22479469095961593,0.05939926919993921,0.19279185632079035,0.4398546264322027,-0.9714320683293421
0.007303359887320278,-0.5024760313182147,0.4551966311006546,0.23131736726568436,0.051878904064759396,0.21424988513965915,0.49161700595660324,-0.9486523544223265
0.015074983922835293,-0.49722513874007307,0.4399405866378248,0.23064031872155544,0.05287587753448976,0.19323909599070793,0.4842286092649531,-0.9978078271359112
0.009559745953430355,-0.500981596867364,0.44856966878765275,0.2740285111558208,0.03677412810433677,0.16932566014777922,0.4543498586281117,-1.0232547273080916
0.020841180482001457,-0.4914770497826926,0.4421072066155153,0.21507788452423487,0.03989423237008107,0.23104787289252013,0.4924254094759036,-0.973718450710446
0.01158332095454585,-0.4842839467503441,0.4424372782452475,0.20994215260462948,0.03780012170877203,0.17418137101815448,0.4524065878090903,-0.9285859338950497
0.020294981130316712,-0.5138335528152008,0.41802322289565336,0.22443013450696347,0.028181987826345147,0.22106585325072628,0.45701385478690115,-1.0205766960551084
0.01240327507283351,-0.48959434469387264,0.4229008767695925,0.22102050440758925,0.029890767251341807,0.1951850108312717,0.4393573538682577,-1.0012126786400672
0.02099234784877671,-0.48769026614861244,0.44313338468386343,0.2132761600952528,0.057270545677608996,0.1911840710454669,0.500580925895596,-1.0159328235656688
0.006866360823053044,-0.5033644364666684,0.42423931942516907,0.19423395563676601,0.037867330491345164,0.1882796149631507,0.42641655087976477,-1.0056805215434168
0.018752493767227037,-0.505592671429351,0.44470049992190647,0.21070409592218378,0.051435803564932873,0.19447527488195976,0.45537881551474335,-1.0148292071561709
0.02012449778274935,-0.48819099326113913,0.4497172731700615,0.22708481562309804,0.0783283568754094,0.17940066536462948,0.4301085706873769,-0.9172835847392262
0.007463304854889082,-0.49886537056300945,0.41998686414633996,0.2204080735773982,0.05551594818435719,0.2000749736863312,0.48732575577555737,-1.0281576458923483
0.003166412714182789,-0.4889652019190537,0.46916954749053824,0.2085406639443579,0.030425276461790468,0.18467979706977783,0.39778851456767667,-1.020929946599001
0.008456327707245548,-0.49580133628439693,0.43981705069786853,0.21213099742893804,0.03333878853501266,0.16595374993379639,0.453207012621185,-0.9831532358447851
0.015655977765140286,-0.5075206012182343,0.43980288148889674,0.22245481074833054,0.05011770303374615,0.16057884069300282,0.4277727039143175,-0.9624874670429777
0.024908063433656338,-0.5011967224223934,0.4659858271006414,0.2205493975633941,0.03620371794646357,0.1718078471186736,0.41078461208097194,-0.9746041906720893
0.015384241443817937,-0.5074651441833685,0.44914543408007757,0.19329092953375934,0.05598238699144072,0.16873921465099848,0.40766771529796025,-0.9106635756362337
0.008952631231529644,-0.4904026141298425,0.4204645794444062,0.20272156982217143,0.056112601707666625,0.1882163678493463,0.41595287645199613,-0.9390664788226801
0.009393245323715216,-0.5065570359963546,0.44909629810525353,0.19694305614540572,0.026814265138171013,0.16761782858073326,0.4363290034137073,-0.9731444412799364
0.010127222117156826,-0.5110318051951702,0.4511468164319455,0.21859670394324504,0.052300233038778975,0.16872645326383445,0.4275797330835081,-0.9724444217569574
0.01632867160276379,-0.49271261331757027,0.4500042783007762,0.20552675396762546,0.07304142096258066,0.18076157261651393,0.40956549227293054,-0.9362183009299365
0.015276211576034872,-0.5077970051602528,0.4408876325421615,0.2176520592294291,0.034497446809056226,0.21291772200618858,0.44452319066678025,-0.9850055752555158
0.011021333230833383,-0.5102051957297922,0.43571012734021114,0.20235535267897728,0.04828053439336078,0.160566967076464,0.4110896182203261,-0.9983565957865189
0.01381918559790472,-0.502914156254675,0.4227023572334309,0.22763562476307503,0.053167661560774016,0.19547066753254422,0.4447283971439562,-0.9465621774337246
0.0051580220851544034,-0.501332890023609,0.46586118227058054,0.1859258278814056,0.0486394579690228,0.15746655229405773,0.42167289016078546,-1.0039194535494498
0.00790357289612815,-0.5046528204323869,0.4477825337498099,0.19250854514590052,0.040052697245375066,0.2129434301065799,0.4464850715957592,-1.0032400706875062
0.024238292380496837,-0.5204398195024931,0.4497770754318304,0.1798810039503065,0.04684940410627743,0.17959890074165893,0.4721833692957608,-0.980726721687704
0.012620893968174993,-0.4986093723442459,0.4437664577326647,0.2119521711780415,0.05296764946574498,0.16463711421489202,0.4435488772438978,-0.9918034804436148
0.020054436165966374,-0.4914097797864771,0.46649860259654735,0.17835193473779465,0.06454980015304601,0.1722971176363891,0.42468853367323883,-1.009976301838732
0.017510524069694996,-0.5066670857527155,0.4373193692461287,0.2150539871854251,0.05692020717420569,0.20149455005254435,0.44105661217292275,-0.9630930727421833
0.027005748998983194,-0.4801483560338704,0.46908270625131676,0.20013642514354554,0.08861092222149552,0.23097869394203274,0.4438117452121698,-0.9359891839944259
0.025518775473120904,-0.46962275269200776,0.46907935146149454,0.20255822279839192,0.07647686891203609,0.2099216969842837,0.44905097684085804,-1.0306470518487483
0.02487842403027995,-0.4670640578968204,0.4619814958251649,0.19696010290982793,0.05630866095806803,0.19598889597378275,0.43768254968759074,-1.0299129129393454
0.038319485104277046,-0.4654182768468349,0.4828301380994656,0.1893335015242801,0.05808820819706816,0.19659909919046326,0.4461075122746986,-0.9213698396895147
0.027268098742336776,-0.4869235388805487,0.4568208936571356,0.19005498978426555,0.05076250727626045,0.2019109283913013,0.4833231688389457,-0.9913542345424649
0.024290909797535634,-0.49528145710710175,0.43173515995019074,0.18601037451566763,0.03619685365891935,0.18856299035474047,0.4361551637798555,-0.9769443299895967
0.02274676080847217,-0.48034813427886736,0.446952167219522,0.18366005404593747,0.0695513038230559,0.17689632078628278,0.43815427713421684,-0.9797152739575515
0.03708400988139324,-0.5025763445196119,0.4322853265676654,0.181167528157519,0.050196419588227216,0.1853725006576476,0.3781434571536191,-0.9852665207783636
0.021511374260010332,-0.4929836409511271,0.45268557799717296,0.16558812080192717,0.05614344926786666,0.16398724505990778,0.4098232513886431,-0.9760540904943846
0.018019932206489685,-0.4714312513413962,0.46133133472829585,0.16614547896632367,0.06609236737847587,0.18377025452685183,0.40183635188392264,-0.9085165392529485
0.03750036966137597,-0.49362971220613994,0.43626105227796075,0.16041692214522194,0.04334045759172865,0.1718576495712534,0.389976382073561,-0.9676290715303161
0.019809599953105567,-0.4864117613683245,0.44161603861044924,0.1563484194425099,0.06583366580225535,0.1722044426386319,0.44173679464346916,-0.9892149277084505
0.02535114310225809,-0.4916956584711346,0.4390472373228765,0.15067285745736536,0.04513177778309745,0.1937333925049627,0.45947961286847255,-0.9584690661986781
0.015445633533918113,-0.487005106745988,0.44584143077719973,0.15624295631863241,0.06066654288162057,0.16861773963094084,0.47123913964786684,-0.8786680940921967
0.03541299381345675,-0.49173348455807897,0.43047080804613674,0.17500451870909195,0.07073347488825403,0.17182703985315953,0.4498564887106527,-0.9117264109947227
0.017879595057635575,-0.491753801959079,0.44931226805751623,0.16962522852368217,0.04217101784427826,0.15123748708457022,0.419263641666386,-1.0034283427609432
0.008311225087272892,-0.4816741349712854,0.4430393076428702,0.16213472688481076,0.05556772601075207,0.20614432001289967,0.445104538098277,-0.944653421412882
0.03482435577454396,-0.49109568952163835,0.4701845313553372,0.17698215815158228,0.06316659875197489,0.18243250620209128,0.4584013517498414,-0.950246438460874
0.007318947754334917,-0.4932517070701888,0.4406017021118475,0.17187370011965988,0.041286594253911006,0.20794702257943576,0.43636534292660334,-0.9505432151645622
0.011578764816200723,-0.5044277320194827,0.4231137166553608,0.19283518684552212,0.05743898770316307,0.2103111525102735,0.4002066285606096,-0.9850942002333879
0.012473429062169132,-0.5092167687119151,0.4411056025639523,0.17763970965124873,0.0450953829406577,0.14619152118877704,0.4197267410498757,-0.976563489718868
0.02807004317356698,-0.4860976781554794,0.4341582292851799,0.19757860353602474,0.043412510252124975,0.17892262779152832,0.4097531402971448,-1.0064773448159052
0.017905688365603033,-0.4901986098120073,0.425113488953367,0.19167165497696675,0.06772924662278965,0.18935639141231322,0.40972502706979086,-0.957800411477654
0.01954409868619769,-0.49767222506498965,0.45442702106521665,0.21912914503441167,0.05030178916508554,0.1854385790549294,0.3930500387278735,-0.9698086140298512
0.014893410462989797,-0.5108850141515463,0.4115583282734103,0.1831269622553075,0.06363563108833402,0.1796286592563928,0.4179884931983683,-0.980518419953435
0.01455111337905455,-0.5061998037233837,0.4671903224637672,0.18624286947466506,0.06529805425729178,0.19446766123814796,0.45108248880859997,-0.9882286671970588
0.021234614237538568,-0.4998385833541925,0.462020510634815,0.18006890447608662,0.05606133817294718,0.17902223363036826,0.49197416105190245,-1.0010666472857443
0.01961555101832356,-0.5049969415986112,0.44925596543905516,0.18543017199349535,0.07903531095076628,0.1799321697731038,0.4903255363871455,-0.9624408919854501
0.02478772426872186,-0.502866177196525,0.449543750807431,0.18588262005405806,0.06538704963189382,0.20164325292722057,0.4556226312890724,-0.9300307160408982
0.025327559486239156,-0.49499392220671745,0.4475012681445364,0.19348149814839188,0.05978052672501411,0.20705504888768708,0.41936848278556443,-0.8955847469744684
0.02128538486629784,-0.48571045502636884,0.4511649007943866,0.17757652140955468,0.050020951731869066,0.20916514738785297,0.44054491429955683,-0.9936472062992634
0.009648316516127955,-0.48407202165858476,0.4599142719426907,0.16675110407942206,0.046915948651532945,0.20682762992280326,0.41658153014980825,-0.9561382538410811
0.017554321087663766,-0.49156564277542075,0.4304382368085855,0.1812578816942381,0.06427932032506287,0.20862326119809219,0.41019215190160424,-0.9602820218151066
0.009854092104441063,-0.4914065951976553,0.46170702561928906,0.1674974207864234,0.05509699576715068,0.18337638703012613,0.4461509400962297,-0.9355989897844448
0.025599749068548026,-0.4857869382920947,0.43887915864759325,0.18562111592960856,0.04357046100883953,0.15396556016285332,0.42697384089677404,-0.9928341918130933
0.030199320241207972,-0.49762511529061315,0.45758104543810046,0.1762435325260452,0.06376972839060219,0.2092544799166127,0.45230682570128505,-0.9163254264115379
0.017881145846048326,-0.49019007679411225,0.4547672268198481,0.19702652868611106,0.06736592739169481,0.18968178135275054,0.4419435216853479,-0.965921358551351
0.02300168328497887,-0.4929871224215846,0.43691788537086124,0.19601053385179057,0.0719026536229125,0.17569861770800724,0.42470732336898726,-0.9680456663233868
0.011352029168462742,-0.4959595812400705,0.46386662298459813,0.17620740418620318,0.05170680170191306,0.18567640495071422,0.43869492832505236,-0.9174390622574968
0.024314548203280602,-0.4825634432423816,0.44487331619251425,0.18748055027073024,0.09023789002818584,0.19142388619500283,0.45043392057093723,-1.0012687381852678
0.022731548613108256,-0.4938511793155477,0.43459862231660684,0.20144336382810105,0.04063789596550214,0.18541448708128566,0.4075779845345535,-0.9900456379694613
0.02267870386207701,-0.5054218403422697,0.4875725162635596,0.20359719439200674,0.053373814723359114,0.1953751254213423,0.43577714470027373,-0.9808171429874906
0.00970086903655095,-0.48405009993453135,0.4513609768835064,0.18653044131607804,0.0627491020588186,0.19402713780388986,0.4487538559952247,-0.9455359421854325
0.0158415134608062,-0.49739298399827114,0.43261330931228464,0.20325258480810934,0.07779934676900731,0.21008537646648703,0.488849064301202,-1.036355088105553
0.015314000132003638,-0.5048384809776012,0.45200575179174657,0.19594734798493035,0.05534471411149512,0.19696893115849362,0.4856643034853366,-1.00212109869771
0.02856329483147897,-0.48681949319106865,0.4220455442327715,0.19075307853296555,0.059618668131060565,0.21349898878979753,0.4842854764243377,-0.934650747795957
0.021183462698237114,-0.4795355683531455,0.45516654374126725,0.17111001288354719,0.06537785848307122,0.2196010819546985,0.4746317983774536,-0.954714946287126
0.019379421520680194,-0.507912826725018,0.4473851380278559,0.1901325859111611,0.0499551172510341,0.19753439513785606,0.452974670370752,-1.048610518685598
0.01347421750772698,-0.49151790358724956,0.4560764720796972,0.19475205810602753,0.07484029431061931,0.19317640570833963,0.4392849704720365,-0.9239148297926246
0.026974034265578196,-0.48609909530596396,0.46245123975177915,0.17871025094875,0.07457831360951639,0.1933933088817345,0.4575622177267814,-0.9787476071076672
0.015007814573584818,-0.500294589712214,0.447899113935655,0.18610313032561598,0.06422971523165792,0.21639350353629672,0.4645402034427084,-0.9952076683493924
0.013478208867920963,-0.48994869716215295,0.4623146690029776,0.20537604169789525,0.06656112009626813,0.21624426923055237,0.4741580698939364,-0.9132976953751356
0.02244088341644295,-0.5014111388460605,0.4214974166490319,0.20017664627397036,0.08437054733539133,0.19631784832891996,0.49703793471283175,-0.9347408893448551
0.03366778515510507,-0.48733751459388336,0.4591564224394545,0.192636657750274,0.0481133723179963,0.20222247019455378,0.4693319727458612,-0.9536184815467429
0.020208787766512457,-0.4939198511709944,0.4575091784784005,0.18098849823723295,0.05415532695447583,0.17686343259265047,0.44777304285995334,-0.9612739736261228
0.02594214585075182,-0.47336543824097366,0.4368988424621986,0.18443547607289437,0.06203497101432162,0.230767809029704,0.4381846332034434,-0.9381065931822219
0.0323548038860958,-0.49028580808325645,0.46850858825531333,0.15295723417853258,0.05529168739688174,0.2079965394390567,0.47314574621615846,-1.0049566152978966
0.020812045795504882,-0.4955442159306257,0.46597565186755935,0.175608151639684,0.08850944577100885,0.1736749319341519,0.43903271234237917,-0.9459047049420886
0.019344477496887013,-0.4799604557347464,0.4487778475424658,0.20350078779478373,0.04428150999812245,0.19516071521188677,0.49711968464855866,-0.9708937327252902
0.021455746240981864,-0.4872555144081046,0.43223676580048204,0.18482411863940473,0.04562259250303567,0.18422577689033767,0.4733640248396806,-0.9305167552319947
0.02424650878220504,-0.49522150478806687,0.44143116671662697,0.17722117371372198,0.07899067504824857,0.21516609549430912,0.44913054523202545,-0.9683385104600353
0.01471657222415595,-0.47893560805137464,0.45053779007939104,0.18294593428186945,0.0803114350578708,0.22168363377484035,0.47461428473306316,-0.9036832355948975
0.032150681353453864,-0.4727893216656253,0.4625666151706331,0.19072365056633808,0.07140655354127588,0.21844470886449288,0.4919533910558682,-0.9181217832564114
0.020229198254403325,-0.5034189584184185,0.46798902185677715,0.16798389862054197,0.03787643713562419,0.20031540890969107,0.4761785403492239,-0.9218073121880864
0.018943733337994054,-0.49601719254468896,0.4333647166027115,0.17273778152807434,0.05905124836582055,0.18543772569933337,0.47250030194481046,-0.9874048559100423
0.011017427023609491,-0.4786231916052427,0.4180899727027851,0.1634332245632986,0.07371221548141721,0.1966167231415569,0.4654230908089011,-0.929562356768759
0.014079358472800715,-0.49219248009283,0.4071574268574736,0.15589032262370597,0.057611518107363625,0.18833143647583844,0.46063784218474585,-0.9351034353994566
0.019743822147589095,-0.4818528087974621,0.4328440043042179,0.1930184588083945,0.07306368180681591,0.18325057630535266,0.4445659691983801,-0.9670666988697885
0.014248198537134398,-0.4897980641886967,0.45485811242132923,0.18826662949347556,0.0753712099217233,0.16241207309904696,0.4326033807875884,-0.8981854278231816
0.026240004198889347,-0.4748697422606136,0.47571621808747433,0.1718794118694416,0.07748970931529624,0.15595364653593516,0.4810681053747454,-0.9187643121183744
0.014729363634574161,-0.4931063571251636,0.42193195019209223,0.17011006020046285,0.040641070025366134,0.186999419362992,0.4179687415041058,-0.9244578272753361
0.014401665971385291,-0.4993522709082964,0.4210495194433261,0.1676080540349339,0.04297045346453873,0.1927276231047769,0.4414262610792821,-0.9334117139934002
0.01132209803957936,-0.49357251875664643,0.43893243763388934,0.16007940782752647,0.06338492826749459,0.18693201632546239,0.48356114881238743,-0.9246339066221487
0.01773660148687565,-0.48838105082383915,0.45237107691754047,0.15721473978179137,0.06189871731092169,0.17986549398212845,0.48103476555603575,-0.9568004165407038
0.016877748706524528,-0.5021543175989938,0.4229584095072963,0.14918446655202378,0.07468262716144954,0.19404535962396852,0.4646995053847194,-1.0054697664411378
0.0038216545544514213,-0.4766730608597406,0.4413199270438976,0.14755129295685807,0.07860953354229341,0.1688006551958402,0.49754017637289094,-0.9618591834785069
0.012047570331594891,-0.4968374557489074,0.418945434766867,0.16832127665350655,0.059237662497666814,0.2159721853705005,0.4863710580859466,-0.9245161155127966
0.004694251474869498,-0.4921947034890551,0.437990228696322,0.15167953881103588,0.05482509825697714,0.23517066990642796,0.42485035003516697,-0.9547192178724933
0.005216640698066369,-0.48956930798437176,0.4457381168496698,0.16919724625265484,0.08264571389817064,0.21551266248142387,0.40880980322200544,-0.957344646721331
0.011938628854434617,-0.4948080758099523,0.4357921416459652,0.16251674000644967,0.042680698890037734,0.18923869511081587,0.4357631281509438,-0.9109507617446457
0.013404137913736448,-0.5100895637180292,0.45502211356116046,0.13224553801703498,0.07371362093823816,0.20007200202461878,0.4216962487313587,-0.9484959155558341
0.006761483265945898,-0.5055251548466939,0.4253009314810054,0.1389264202979686,0.06361128012492927,0.1656964562437003,0.4436333852330753,-0.9593329463358397
0.010773290688146333,-0.49786049547569944,0.43061704764089614,0.14684876083731635,0.0792115257133093,0.16290721164977712,0.4491592582706242,-0.9696922315787468
0.008634074862105857,-0.51207811752544,0.4384170580235383,0.15485734432587853,0.05824695977884192,0.19187974330890495,0.4595517978947036,-0.960305579068147
0.007416606967608912,-0.5110843896320587,0.42682693174921554,0.14435924251222462,0.05274699613903243,0.1753517863361346,0.4252044564178654,-0.9265140726323956
0.020099373147011785,-0.51546383764244,0.4204703980734433,0.1450697309130003,0.045549349845348544,0.19584255543997992,0.4606656657768854,-0.9676881833834444
0.017936762476809927,-0.49858482413338023,0.4407898606253995,0.14715822891659452,0.05682025573873316,0.19064699471132218,0.42619763946052863,-0.9615477242387223
0.016866079384630552,-0.5022602609985015,0.43029555453799906,0.16900202667821812,0.05489485794089244,0.16679507387924028,0.41897156678599323,-0.9890304044986168
0.014906586338765185,-0.5247513293380834,0.44319654504427725,0.15458038328541462,0.06493820915490804,0.2175547550087699,0.47457811588843646,-0.9996174833019523
0.006255320914112423,-0.4968132434771789,0.4397591704476675,0.16014890722813205,0.07169902681750433,0.18192799260903494,0.46763700022021654,-0.9311831066107281
0.009057093533985108,-0.5003751649793458,0.41952775139580617,0.1374050551284664,0.0588698604843857,0.18585391090653094,0.42169468343069405,-0.9820207858898407
0.012099633494906191,-0.5075994976376925,0.4520785529343341,0.16198308227016994,0.05913802138670723,0.1723885046607612,0.4467913934405169,-0.9760096497063535
0.010279357735567164,-0.5076196192252007,0.43729753094799706,0.1431424714982692,0.057735697845543124,0.21367510500074058,0.4660535905252637,-0.9623117500531495
0.01651179860467906,-0.5176182260311843,0.40832921151549334,0.15423567081904632,0.054124590694928296,0.19057216105284008,0.5117611583073183,-0.9844078807991211
0.006499532666487097,-0.496528078556756,0.45268820138138605,0.131572781084975,0.049168487245636744,0.15548428109301976,0.4466252378048093,-0.9613181701523199
0.0012513777500165507,-0.5188644470597659,0.3919118426396692,0.14778514429444162,0.06916297848616546,0.18127985718158984,0.45039293253498874,-0.9520287687125342
-0.0015842907962459298,-0.4976953683564186,0.4136389530518526,0.12684867178132217,0.04975489182160259,0.18460312140731205,0.43127504346921586,-0.9249054767825744
0.008248242489332749,-0.4890048086852091,0.40685024457202423,0.1336646651417279,0.04322609751688192,0.1728796639132157,0.4302848066997541,-0.9669428344805788
0.010693828753722927,-0.5130541357713756,0.4188932687501278,0.1507744081212086,0.039283857534342125,0.16917334902739348,0.4267058973952974,-1.0050206271879123
0.013115288033608515,-0.5106029487638756,0.4248317179643529,0.13304476480271404,0.07002446936435652,0.20616917973135573,0.49103644738370467,-0.944335195376499
0.015137472592544282,-0.5123711845967978,0.4188756493078138,0.13944003683069042,0.045993282225289325,0.17312380128590624,0.427124881064256,-0.9158660383450081
0.012143390551668241,-0.4987227435796723,0.4185225117893649,0.13593778094695183,0.046492448388371486,0.19839864481421596,0.45220242796976184,-0.9852621964610979
0.008928155754000036,-0.5065733004877583,0.440398898540441,0.13214547376431038,0.059987139739432996,0.1460063378569394,0.43909526565065615,-0.8600698685563777
0.004835799066637887,-0.5084035523816542,0.4047760377343447,0.13743904736074292,0.05789644911156821,0.1485261185695452,0.43142417652195975,-0.9559330551922609
0.01611799149313991,-0.5046848907457783,0.44026574264775864,0.1301945910990417,0.04574770406738908,0.16282888022476985,0.424051521051054,-0.9543188313451236
0.014449943895910531,-0.5022487960132066,0.39964909315851316,0.14003122453978747,0.05541480574124978,0.17658328932348097,0.41406725121310634,-1.027599652779183
0.004688458626027815,-0.5030115611774553,0.4241495001087953,0.11274483500243378,0.04751412897857438,0.18126580737870304,0.4517571557457643,-0.9506045623902336
0.011417270022925455,-0.514257774923861,0.40275724548331143,0.16632582427102055,0.06602704229259358,0.1756197333022954,0.4318360549684179,-0.9452440218888631
0.008079271698039011,-0.516689508258508,0.41387726765643823,0.14915208146959838,0.04441636663460531,0.14199708951673246,0.40526346037174354,-0.9653721585063187
0.01697722861043076,-0.5058215650422757,0.40872667190326906,0.13975371662057018,0.06286017513474815,0.16938130087225398,0.43937193856785434,-0.9526327159094193
-0.00968703993994362,-0.5004083039183321,0.40358880125803726,0.1550403487737695,0.05228467763466596,0.1636005417192758,0.4097126750973661,-0.9136986564946149
0.005498930338831365,-0.514477170807615,0.4087072292195479,0.14395633730603086,0.037175140606441705,0.1590993779422572,0.40559619393794016,-0.9941244738294025
0.007499068440138108,-0.5205670724917175,0.394458572159145,0.12821766858867303,0.05023041049167647,0.12779484477783595,0.39445047445387255,-0.9539467090074201
0.0010514011490583694,-0.5028816350133963,0.42254052253329366,0.12093924129225236,0.03707008346722052,0.14991653474831027,0.40977540094431175,-0.9722105812033129
-8.461333668044337E-5,-0.5279294789341591,0.4306493128964932,0.14498548404249342,0.035577073434421506,0.17190688517618302,0.46057888590838225,-0.9747703722203597
0.006249029176187495,-0.5202926899502859,0.4192426041512773,0.16988350011053058,0.042305404781277645,0.15975131841072787,0.42735756688074855,-1.0107992130798988
0.0049171928746918805,-0.510924054688311,0.4327496956214187,0.14029397280453132,0.04323704903644864,0.15318897513705942,0.412181435376096,-0.9914512925736639
0.003470265317762296,-0.5186000520986405,0.4450727040242894,0.1298395253653507,0.0666691300816688,0.17204475088788837,0.4395743627129504,-0.9906848550531406
0.00636564765253181,-0.5147811136947119,0.4072159175231835,0.1533657197140958,0.05813484301439871,0.1774752082457427,0.4247357912406078,-0.9821619435698644
-0.0024309976417828216,-0.5088704463920177,0.44501682794831515,0.12989370145740806,0.053231280008604796,0.16226297077855836,0.41894609663266474,-0.9309333740650317
0.00843662052961042,-0.5242751095246094,0.40887154194325914,0.14251811245092877,0.059450488385094154,0.1715656294726752,0.46493474706707644,-0.9253653872823787
0.00851303285677486,-0.5105750958773275,0.44245822707534654,0.1590832934086719,0.04517194869939535,0.17739786014627412,0.4416389587478243,-0.9745399906832384
-0.004340063797692873,-0.5252898115519895,0.4308388734668373,0.14486763383747675,0.06756651258098824,0.16990424870654067,0.3780057334868341,-1.0150432774815168
0.0034888402296952992,-0.5252840060813515,0.41177728904043853,0.13607760367022834,0.06389349588727572,0.17839537673812034,0.3950865300308683,-1.007395753072204
0.00856183555394893,-0.5305288969376819,0.4308532975797105,0.14996870616328786,0.06305131663592654,0.1960229133198211,0.4506035249940733,-0.9553341844970136
-0.006768954094568082,-0.5129499523759211,0.4255627326975588,0.1618815491023929,0.04505399487998849,0.16316214047112026,0.4202100514571114,-1.011596577803059
0.011305244199863125,-0.5163125603009302,0.4283567426358206,0.14903675562647162,0.047739869798395826,0.1399372507173462,0.44163989643163687,-0.9649024768199654
0.009656754838413705,-0.5138218237218215,0.42602038118091556,0.15778884369987897,0.027996550878834868,0.13906874536391411,0.4139981308643032,-0.9758775994741443
-0.007017221038824471,-0.5230577805623547,0.4279713698557945,0.16877580835509667,0.035884270820276565,0.17579509474593003,0.42467385020985826,-1.0199386349437696
0.006671953348484159,-0.5319576317794882,0.41446660393351353,0.14396709137793426,0.043770481394158865,0.1640257259878945,0.3929890850517487,-0.963767128148202
-8.317387863313825E-4,-0.5132311168384066,0.44292859630702003,0.15500587415559178,0.05163852430767956,0.1315483766150589,0.429411797704564,-0.899501053917573
0.0030756643019298853,-0.5247751722773445,0.39947722092028093,0.1282896512194085,0.06609686553087073,0.17359260638346546,0.4333366059779594,-0.9566419685160724
0.014986773502022358,-0.5290403598286675,0.4121781004198935,0.14605023870292633,0.03300225537437074,0.15221505538670901,0.3851223195601215,-1.0115217740021196
0.00804702773452811,-0.5031771194165349,0.41982480962429614,0.154623342173311,0.037347790221642335,0.1454876719342094,0.4694778386603923,-0.961091121996316
0.003889860369068012,-0.530963619964697,0.41275597571207195,0.12198970764630906,0.0341930812671083,0.19035319474659387,0.3741413229451333,-0.9218143450708092
-0.016104026068967582,-0.5240731379840092,0.4054569488374631,0.11476558733176233,0.04205205842658935,0.1542563720220761,0.4110941861825736,-0.9686987206526364
-0.0015232294723354566,-0.5409604737932093,0.4013282132431453,0.14595570787072365,0.04113888353413937,0.15626467964603472,0.40186157183621135,-0.9943798027928945
0.010916628721562726,-0.5219515461555638,0.42258457489231577,0.14530867589175545,0.043098587606736814,0.13981548501724225,0.39030195761040865,-0.9632038816990307
-0.00904037999714569,-0.5419866626571042,0.38747391905715284,0.11140614773165268,0.025165328869086016,0.1462529444112089,0.40600252683741916,-0.943785720555918
-8.002851280459246E-4,-0.5388415477814916,0.4114706371444296,0.12484157739242936,0.04721228203541793,0.13776331224641683,0.4020279896942574,-0.9767980440644302
-0.0024625106657004243,-0.5343226977851868,0.39884931791813033,0.15930411109554538,0.04208233835284276,0.1741178493265246,0.4256903326053164,-0.9465129346345563
0.006126245946652644,-0.5244469193135732,0.3828053329756274,0.1425337108547216,0.04068807211002544,0.17331103929601527,0.4130504643735318,-0.9482364132539718
0.011973919633963773,-0.5293042138301637,0.4161245933846685,0.11658500771654885,0.05165315676706242,0.1495858986380617,0.41624196484301484,-0.9533411316887381
0.01348559820763503,-0.5413264345667523,0.40464023768531815,0.160745690885949,0.03644066729872215,0.15070101115381196,0.4318477688232216,-0.9405313875643616
0.0014798243058570797,-0.5270493632612098,0.3979059207486196,0.10425325311828916,0.039763326707864075,0.14822391974290855,0.40336245494813894,-0.9679844670610602
0.006200700404032221,-0.5197343173406256,0.38144393013063677,0.1263214035564356,0.04846571227709518,0.11814117893549185,0.38362333279450017,-0.9350485093354252
-0.0016732540085690917,-0.5260843928533423,0.4013161328131073,0.13720207871955342,0.02879363155899759,0.14550683071514756,0.4073666708850745,-1.016959600234262
0.005046655521668202,-0.5304960772065914,0.43271502706057313,0.13872335057716192,0.04089085561327638,0.15136062735879618,0.4096277063042718,-0.9957660207379859
0.0054590590928814894,-0.5100091802999764,0.4211972220514087,0.1504231974368984,0.052416840468419136,0.18813818554744502,0.44754800422775665,-0.9995996498623984
-0.0026601854042870676,-0.5360114235901101,0.41595997756837727,0.12534436623334985,0.026637462430030352,0.1405780882869169,0.4093969132685238,-1.0197149981850424
0.0015806614133007633,-0.5240065574218477,0.41082808976876944,0.1377437026531769,0.0650292781976091,0.17290935152472314,0.4171401454239383,-0.9683240667263977
-0.0035863458036256447,-0.5315466895675324,0.4141588072211884,0.13877270412985104,0.05557981372491398,0.1394325986636171,0.4180335801807892,-0.9775368746845661
0.0070985774958999374,-0.5246132291351503,0.4127992954757514,0.12682471361409758,0.04358772604108167,0.13322715312915206,0.3699156189098777,-1.015548472942431
0.00280962458334271,-0.542539110745419,0.42532140528117,0.13516690069102988,0.043812023717589466,0.12319449339280465,0.4222406946327089,-1.0021827967246395
-0.0043126383151316896,-0.5331357200366534,0.3919771204477674,0.13828161773062075,0.03133007521838807,0.14503504956270047,0.388400437807868,-0.9587097845992752
-0.002243152485244968,-0.5278875069355912,0.3954396226321675,0.14332967015334383,0.05519789436472746,0.13681147817152595,0.4098500362436913,-0.997824394992287
0.001761271739272337,-0.5343366891414966,0.40151904116336967,0.11440987072562932,0.03219919985358271,0.12588751244152957,0.41164818396620295,-0.9574162198324309
0.001892563146463372,-0.5422381294481787,0.39934022639326333,0.10871821667086955,0.053677930356171605,0.16889152113372558,0.39233894654708196,-0.9936963150995025
0.002791854414574901,-0.5114792798757559,0.41733200502990564,0.11632458976987842,0.03429889285047303,0.14925352947886517,0.45734994401615964,-0.8999718880315016
-0.001567557707706957,-0.5455136693055715,0.4198311519298207,0.10439549549500228,0.03176778666415242,0.14939137013174955,0.4027629744961149,-1.0029487377895525
-1.2605905050825405E-4,-0.53487913020468,0.3784662440606551,0.09868573110034404,0.013791373949210239,0.12903599480777814,0.43323265483611945,-0.9487545381914468
-0.004331325810281154,-0.5326428616478385,0.41939726897065394,0.12012337610029264,0.06263977428255581,0.13923939062942747,0.402599859517105,-1.0215173652334435
-0.0066844595987739655,-0.5533370341567148,0.41569313792448814,0.12227216359169885,0.03356408945689093,0.14272893908871534,0.4056719451676554,-0.9982152916532051
-0.010177126975010093,-0.5418145333526383,0.3844721209375345,0.11715291532667645,0.03186659711851564,0.12032438853679898,0.37457363452870185,-0.992240557591183
-0.0039207440478544586,-0.5419285696226347,0.4002555692225145,0.1164727320706013,0.029931802699887614,0.13317537761943868,0.412951341437057,-0.9268714259406119
-0.00916431107509979,-0.5315889987040648,0.3979423074026043,0.1080205230416118,0.047102055060312405,0.11723640500325394,0.35542294387235257,-1.0045960234675417
-0.010695155471358919,-0.5461171847006123,0.39696666676092646,0.12686611523803565,0.012784685887999529,0.10547462006363338,0.35891053827177843,-1.0129602886336406
-0.015241258784290156,-0.5448100564264758,0.3564835622258361,0.09965540999594638,0.02450561196364558,0.13635721834679448,0.3817359851287239,-1.0079445445543485
-0.016318271315509326,-0.5368908268463775,0.3951414241397927,0.09046290467955984,0.04195974959229536,0.16187602229219414,0.39362589516629515,-0.9653249450536315
-0.002162259682026369,-0.5283267204280756,0.3740553590373335,0.10828141519391052,0.02742020202301139,0.12710924631087173,0.36900309263604647,-0.9666467537230883
-0.020480596484878304,-0.5437969269468541,0.3890859141796181,0.11223181967350657,0.028658874449555113,0.12967280789177776,0.3871128943800718,-0.9609384128459297
-0.019184887929124293,-0.5464647255956284,0.4056193783805464,0.1058286404617382,0.04194397165876805,0.1371691080281248,0.3706442334320355,-1.0065863429685296
-0.0029566269631755154,-0.5706369813434392,0.4015579393206072,0.11995278164044959,0.025645659931815862,0.13935954078269544,0.4010586666466753,-0.9877220954885312
-0.019108314749047617,-0.5539238798510373,0.37841079299367864,0.10929063633924628,0.007648314808583484,0.12590238669918136,0.37405688650014357,-1.0291911308548611
-0.015337497817609286,-0.5417620013268639,0.4160879399171764,0.11599508101827538,0.052528178948266356,0.12594780558014518,0.3570866020192164,-0.9909697359443357
-3.493825046049849E-4,-0.5424135032132765,0.39107689875164664,0.10566701191212709,0.02612583971935982,0.1793055922150293,0.41775378334525753,-1.0225612450001558
-0.021569798877006826,-0.5506955148952972,0.37857958829522487,0.1286604798395153,0.04264317658139466,0.14993385108555554,0.4388737247188578,-1.0541024689042495
-0.015832632452309155,-0.5524946953948352,0.40244002863118017,0.09957942203451925,0.008235222881858635,0.13141191968240604,0.4181370082183556,-1.0329088906290922
-0.019214031832129407,-0.5610332510388703,0.36940644427385394,0.10798756458199951,0.0175458486743218,0.1315502035723139,0.4357826016664852,-0.9967135126975245
-0.011065285402970427,-0.5384110266526225,0.4072929313515101,0.12312799715001288,0.0439751273586448,0.1288896354437787,0.36812622385280097,-1.0405977438783123
-0.0194505420781321,-0.5599157643016373,0.3962474392720088,0.11892329026800001,0.013349249285256999,0.14016476156784421,0.4023233424001875,-1.0242343519401425
-0.017639326213819816,-0.5581811164845767,0.4004349869551763,0.11343660448735235,0.027551471434404225,0.14931510455373387,0.43314535853909225,-1.0410772471533467
-0.021850600959534467,-0.5570270432710908,0.39663184201487117,0.11914865035912994,0.04666646523541891,0.11029712314398733,0.40056086998739515,-1.021720136124146
-0.006884494025982399,-0.5658116772082752,0.3912730136114836,0.14365528623237986,0.020785068269094004,0.14918385378116564,0.3932013803180544,-1.039509569041836
-0.0184406588556417,-0.5542744906909874,0.3861122094426841,0.12506446356839523,0.029838012687828184,0.13333240195475193,0.38057296541336505,-0.996830193092177
-0.02662121408029263,-0.576349667611279,0.381804584175869,0.12021153744959955,0.010117986234808859,0.12915606530276083,0.4004815500455131,-1.0266387263209942
-0.02067883355232207,-0.5667800840222084,0.40189235145819746,0.13952528340309114,0.018661904668900282,0.15220207989231327,0.34907972780405006,-1.0656683403258052
-0.030267699627718414,-0.557611668708608,0.3829043645669847,0.13162707174201288,0.004631597940509064,0.12510552027263452,0.37259693159200874,-1.045972800287901
-0.029217781849296496,-0.5596344825424344,0.38071434083177924,0.12211711121609782,0.0352505067048395,0.13774946666827778,0.43052376502453327,-1.0067218209519992
-0.014467493573800247,-0.5609561689599504,0.3936947748457276,0.12759198775987893,0.025959928094246628,0.1406532230072478,0.3672868601395566,-0.9890057415557606
-0.0270960013530683,-0.5607479125674167,0.38749069845889567,0.13976089726766466,0.01025651078584566,0.1367080256891108,0.3859101800843739,-1.0855907831612526
-0.015551853781779024,-0.5620285981376711,0.4160574057336782,0.13104958737211167,0.01552636646818313,0.1397358063544332,0.3708458153248739,-1.0519526334916065
-0.026200380982885466,-0.5599044301084275,0.40798858706694274,0.11817907553461814,0.02960896717199415,0.11034317315267596,0.3970863629065573,-1.0056684265478326
-0.035175888252496956,-0.5742280947600888,0.3851893722976675,0.13538279311587467,9.792598932645742E-4,0.12378809311254112,0.35469342720947816,-0.9748107317606178
-0.02277915318982458,-0.5671452949480924,0.3956079207992275,0.12852269439386826,-6.280175602229539E-4,0.11303870232669636,0.36773408521566625,-1.0282029810249762
-0.033753263846761264,-0.5949028939316652,0.4013854485803879,0.11222110633371521,0.01492284500973924,0.09585693329558938,0.3712857752634474,-1.007885040871672
-0.03482009964917612,-0.6094229118821928,0.37422542019438626,0.09283879711526231,-0.011187488277668854,0.13284560021165856,0.3789617057246228,-1.0566360598742766
-0.04867694950431109,-0.5928151152531158,0.3962812183417042,0.1134694663331088,0.010223267166823561,0.09539744157654628,0.3695848769395632,-1.0660394872981176
-0.03386533058972392,-0.5915178569360853,0.37436014873306234,0.12529073638784002,0.013101730450902602,0.08721680580367494,0.39664563907494454,-1.0246756235076173
-0.03086890793439802,-0.581090275042395,0.3711268337556929,0.12471561273186871,-0.0027471763010455423,0.09588268446858715,0.38530445015890297,-1.0652704016268917
-0.02545428765590339,-0.5893045421844304,0.36644845231240125,0.10072832174768762,-0.011089122512753643,0.09738859518669717,0.40747714231724275,-1.0854387589379373
-0.028052415645037552,-0.5692339470021937,0.3829144099337224,0.1161066895819968,0.03489281196226858,0.14166015822301992,0.3002150897798392,-1.0404713519663933
-0.02214707714727487,-0.5688263019705279,0.3985269735189069,0.11992585114054441,-0.0048794937464463365,0.12009117793922172,0.2923366513024563,-1.020319502139412
-0.03161591513855645,-0.5908527528612793,0.40385176954681945,0.14152326110048624,0.007126421984489913,0.07468511415220101,0.3493027844174392,-1.0370393570019594
-0.035330080557403,-0.587895798608876,0.3765086747979543,0.12175018404278284,5.829501442856816E-4,0.07727910017034226,0.3308698392731711,-1.1247035900053968
-0.037261015013605805,-0.5868336931711452,0.39675685295477103,0.10537966827687775,0.0037578508677653115,0.10655277988310083,0.32803076136807113,-1.0750246158837458
-0.030177670893488676,-0.5760193243091433,0.3966035530390932,0.11216620349747179,-0.0011603081527656578,0.10630729590449717,0.37360581164145773,-1.0973260307107253
-0.03006143610856441,-0.5879271808994675,0.415304096250433,0.09963096515778531,0.0014850370519199087,0.07658211798792493,0.3401603158049973,-1.0474823038849388
-0.031140732649589876,-0.5967040727738205,0.3463373131548159,0.11521114633846148,0.002275214973755102,0.08064025062667347,0.3428720409618376,-1.1100466873145127
-0.03599895406327255,-0.6057930533398542,0.3747377981983041,0.1150022425239784,0.006279232418616185,0.08719900836293099,0.35656654327937104,-1.0468146715759994
-0.042424377699347836,-0.59925041907637,0.39791378175654746,0.12591926505064371,-0.005207256912471815,0.09348461102769372,0.3561202860008139,-1.133318068390625
-0.03522694879996422,-0.5845101434929428,0.3899288524287835,0.1290381572825051,-0.026051818906050482,0.05948403120409077,0.33793178745891067,-1.1162372482530356
-0.04972712133314006,-0.5920909500405419,0.403133590815595,0.1180155817363482,-0.0033634946299542856,0.07118665757163074,0.3519776860694736,-1.1021645268220868
-0.032210298912622365,-0.5825433135660315,0.3728966849671786,0.10462726314171926,-0.0239609542514542,0.09860831711171188,0.3545086116857385,-1.0360471346503701
-0.04020648375917957,-0.6073694357194693,0.34523876802415104,0.12089889079716427,-0.002736961172598413,0.08232326829462829,0.3145951658935482,-1.1035498370832282
-0.040094138359567606,-0.5985434282197131,0.3840461621135591,0.09667473593783422,-0.006480721680464919,0.039346829384194086,0.33740957009820094,-1.059874810041195
-0.032914159707945465,-0.5747495226760202,0.3396804630790513,0.12649600101256311,-0.031212698388754748,0.0981808207438026,0.38958414939412994,-1.065840843824936
-0.03243546905608436,-0.601047614677025,0.3827072032008753,0.1025154997020067,-0.03523137909708986,0.11503057426627289,0.3331023909550062,-1.0916234940950356
-0.04054684659920638,-0.6036650823636135,0.39066873478314845,0.11605589143709921,-0.015260151966538215,0.06945395789583807,0.3556540974087415,-1.0994610386775798
-0.05128550901603848,-0.6210300378969184,0.3719286713593897,0.12522417047771342,-0.012673747183779761,0.07866456930589917,0.35806511360204385,-1.1137309908992592
-0.039194500190238075,-0.5963037297223813,0.3809789935669702,0.11358780164720621,-0.0025094479423053598,0.07868996094045785,0.3183848363058447,-1.139230902595331
-0.048753994531209495,-0.610272314541857,0.38533644827335584,0.11926006858887205,-0.012089042159836725,0.0858631322297985,0.3204352586182652,-1.1582820118313417
-0.04478283531252302,-0.6107199578077023,0.3885438284456343,0.12990994119617663,-0.0010421436962171845,0.07530379452890834,0.3421636183419117,-1.1046873233244907
-0.030320418351704848,-0.60495389411401,0.3575390329962616,0.09967749107474995,-5.112479046397737E-6,0.06310154083422348,0.3651019940437031,-1.1072675634680047
-0.045158109659506014,-0.6227723747607661,0.36745033700881535,0.09432663210065102,-0.01388764457897199,0.062218558700920294,0.3070018344051403,-1.1174837449900643
-0.04528515639439989,-0.6194692222206926,0.3774516157951439,0.1183774407481102,-0.0032599423874252447,0.09226390185353243,0.3256617756252883,-1.1799975624789383
-0.051063288970765286,-0.604581213037653,0.38024297450252315,0.08178576823076072,0.0019309424676042166,0.09838977552970264,0.3494072795938491,-1.1146997225589546
-0.053331566285746604,-0.6175293679390171,0.3710568986674209,0.12122433652387414,6.502862585893294E-4,0.0945010526227976,0.3376876305731792,-1.082606516048752
-0.041945189819183736,-0.6068598886392957,0.36827819742625795,0.10253607767766836,-0.010087550996520582,0.07166204301490421,0.35833283622809087,-1.1118858997804137
-0.04624352059797936,-0.6186258245529751,0.33536236380837187,0.11161464703342781,-0.0162405290244817,0.11778854622613356,0.35767064619158234,-1.0839243376973446
-0.05260308623456991,-0.6118862103276833,0.40577376558041756,0.09681651848615748,-0.009303609628931954,0.06143155312203351,0.3401463726660625,-1.0594131051726439
-0.04095712051038365,-0.6121631276424482,0.383080449650873,0.11750682439143119,0.003536120993806653,0.0680446576384959,0.33856676510266936,-1.1165088797723188
-0.03154995177045448,-0.6086662114029103,0.3658994176245042,0.09297626228240985,-0.025309771436810947,0.08952401206172449,0.3584136088380283,-1.1159754594497764
-0.03964967326357532,-0.6064255859688954,0.36970890647509413,0.10716085832024072,0.012865784621970749,0.10756851752620081,0.3416194393468217,-1.0956171168694868
-0.041497280778335956,-0.6022502716200442,0.3811635950896376,0.11045009748994006,-0.02975875378436635,0.08575476587652635,0.31854528910102214,-1.1302419474513319
-0.040618865490503565,-0.5942686467421316,0.3867365474165757,0.13110817053596557,-0.013108975633298079,0.07299228275774347,0.3483994198853986,-1.149380691564718
-0.052219918074606846,-0.6138955436234401,0.3819033835156313,0.10464358566448205,-0.014350292891463862,0.09826548860572261,0.35009638610763494,-1.1030344944533352
-0.04649800490208513,-0.6213989603710599,0.3674543297044506,0.13407252983099416,0.013430123350904611,0.10174359384742478,0.3811964271038536,-1.1341386144616388
-0.042521569646897794,-0.6348097091453518,0.37653250936240357,0.11068353696824261,-0.004375014908884752,0.11086925108400088,0.39359782563806067,-1.088360591161471
-0.0456146443556173,-0.6196875900708716,0.3932015196856171,0.11920098494149525,-0.010831009758744911,0.10651805825392112,0.3376359914206301,-1.1233499218810359
-0.04717142617717187,-0.5928558528119484,0.37645611910023913,0.10916038572482153,-0.005021499897834478,0.07593107722782227,0.4031651297317715,-1.0703246434841154
-0.03191335862600113,-0.612512905380422,0.40101382162274013,0.12628820736375793,-5.668387746572399E-4,0.12259737997315966,0.4036244068060641,-1.1082186271465728
-0.037529454751611645,-0.6041423022532664,0.42239940578988394,0.1198292290922723,-0.012376306440383013,0.08540543647174051,0.38987023162002765,-1.0682334671940155
-0.021936082562944353,-0.5864937656263541,0.35680052945782076,0.12604539159379397,-0.012772580290653686,0.14901680234219825,0.36646824292702673,-1.0996695511837014
-0.031940123916147256,-0.6042338869153069,0.37303354994372107,0.14939605416527502,-0.002841756877689371,0.0718019861477483,0.3340260206287098,-1.0808936744534074
-0.032508640074122824,-0.5828862344492516,0.38900522481345173,0.11623275947911667,-0.017765503046935797,0.11576610392001374,0.4109225538636889,-1.092950712975392
-0.022387032558316308,-0.6033367791326253,0.3969694213960317,0.1354558652011228,0.007550600943618435,0.10411511375321876,0.38701388433250145,-1.0804765539972228
-0.03872823865031003,-0.607947118928345,0.4185968399615362,0.11689376099837558,0.008234073634227486,0.15195211796384123,0.3657862498622919,-1.0946725375000075
-0.02778964271952723,-0.6068757561001371,0.36643607898990627,0.14496105956085442,-0.017433481170457822,0.10285431878828531,0.4103082045184859,-1.1334368768247725
-0.025194293167273667,-0.5855106534805854,0.38248785726149515,0.13460679161425299,-0.016198846745597434,0.10095751964320446,0.3886783124757002,-1.0915883381073617
-0.030516589119753024,-0.5794134745156402,0.4072068511847911,0.12809807337539042,-0.006469856004371791,0.1289626010046251,0.40984325650729725,-1.1038880504480788
-0.029439160435178614,-0.6012453472221221,0.39671269039402834,0.12156048554805005,-0.010919885052772004,0.10125117396652421,0.3651853051536969,-1.1244957924371013
-0.02914869826785153,-0.60296776861085,0.3607867757151867,0.11043563396139877,-0.02197201792367138,0.11808988749976919,0.35725773204736305,-1.1024703305413681
-0.04330804970897184,-0.5978970603639574,0.3690218863120735,0.12989825323983503,-0.011838375498223815,0.12164184782521513,0.3965430665424841,-1.0512492272263456
-0.02067345201478031,-0.5898051831137366,0.3851384033362981,0.12882441011615825,-0.016484432007433755,0.10948588044825094,0.34839817105104726,-1.0538515745942552
-0.04117578350137934,-0.6035234535968639,0.37870942502439403,0.1264820919617338,-0.024433029654726154,0.10637670314437335,0.38314951196603403,-1.0715650350245516
-0.03565765897779873,-0.6034389864483699,0.36149468604664325,0.13118507955944725,0.01216140705232245,0.12126857943615199,0.3857402175544208,-1.1014203327909187
-0.03751016201545447,-0.6011531525618734,0.3793249173887478,0.11013984709228784,-0.007716735208844641,0.12652724487481654,0.3735562001266012,-1.0636051242563807
-0.026687183911026886,-0.5929643448085161,0.37464746511492997,0.11605172369268393,0.020948453853666678,0.088225094685523,0.3937223643543865,-1.1066797370983508
-0.04018348565575695,-0.6071268108720596,0.3589814368306446,0.12227709345465522,-0.0233454137414468,0.10503368968602382,0.3494467209367428,-1.1138727465870926
-0.027198632957232398,-0.5803333895756095,0.3803939309454437,0.13092791099005036,0.01455891122389887,0.13173520700817246,0.4047776609781339,-1.084233945619641
-0.042127668877204136,-0.6002079347519153,0.3726993706103613,0.13203754056360467,0.0019402797154437362,0.13265489461109478,0.3746368047786083,-1.1124201761415142
-0.03967927082740989,-0.5990511116473987,0.3794505025013933,0.15269634954188446,-0.018400698345154176,0.0804788492867092,0.38346678828515424,-1.1328308338975972
-0.02794994401257643,-0.5942333644518274,0.3970657298655528,0.14116459612049304,0.008547461957493821,0.13249507829604928,0.37164040302653534,-1.1204139991662507
-0.036528618234608574,-0.5866974215109636,0.37220066515476,0.15202921754764356,0.02475423974299297,0.09050106303860282,0.40913676180383696,-1.1516506085196991
-0.02520589571629742,-0.5906673771394382,0.3826129323304971,0.12728243995594676,-0.006775450201709352,0.10099085976809039,0.40174409752103246,-1.1592692830836937
-0.030744213318085155,-0.6096864413867655,0.39372322095453194,0.1292807119896623,0.0024957912544165176,0.10270644481752814,0.36808615903885067,-1.1083576211395063
-0.032186352740666176,-0.6045887252536692,0.377279452983305,0.12590117585295443,0.014265969806415825,0.08454284458709573,0.35395290145643465,-1.1272194218575886
-0.026564781961696433,-0.5975965837236012,0.39978199217792343,0.1657038345888009,0.01853297525314623,0.10507295356822552,0.3727041191026373,-1.1191846119303406
-0.05055004769807713,-0.580882651417418,0.395725127927426,0.13048274881628558,-0.008318404422781388,0.08379749494233679,0.3770649857693423,-1.1013944189526186
-0.028737215512056182,-0.5985683120063988,0.4047714319253444,0.15227172843703005,0.007343369929097032,0.14214354759732586,0.3601752316115093,-1.1317676292019663
-0.0395865339686897,-0.5906222619471438,0.4088859693587228,0.1403103180402799,-0.004242171808565045,0.08855503199538488,0.36327975005584523,-1.1319454535910565
-0.02684567341523257,-0.602123179101457,0.3878587542075395,0.1435803360089499,-2.553936432129398E-4,0.10703965347915995,0.3602561705654759,-1.1424634260790367
-0.027411900959491874,-0.6259573430086312,0.3899481884022565,0.10723299474022281,0.013512317543035588,0.11407817993482204,0.4058734366902705,-1.1084495876117104
-0.038773053367313445,-0.5822684604639224,0.38783866968116926,0.15643557547346232,-0.01994620336922567,0.06407039134546773,0.34924611735417344,-1.0941925440908122
-0.035934174139696386,-0.5927187201755513,0.3905788611896896,0.1502423831568483,0.014749020250040634,0.09062668510440249,0.3481141217805194,-1.139494820265342
-0.0246267237798284,-0.6159456533270128,0.408608331760293,0.15353782497040472,-0.011207605010294677,0.07792598083396902,0.33507741138892866,-1.1762210589536048
-0.02712628956005792,-0.6177388009531376,0.4015452387288864,0.12839488818277098,-0.006799913073950814,0.09259219071413984,0.43784155001890873,-1.0979013817074696
-0.026694733748886135,-0.5892523509023384,0.40891928230604674,0.1700899445404695,-0.004416200128564062,0.0937976975992324,0.3636487867312455,-1.0856962163938737
-0.023833631243682103,-0.5936297818435131,0.3782263166721404,0.14080443572863618,-0.01636911124090731,0.11944306346097637,0.37526452315265274,-1.1359742957866532
-0.029184943558139317,-0.5940560975315515,0.4206078614612278,0.17307776932046046,4.775660931142783E-4,0.11081291316501343,0.36936156429609984,-1.1043622962299136
-0.027964982350775793,-0.6005602812688967,0.3992655677249038,0.12764477116301032,0.005386511296045737,0.10800833876883292,0.3282347972741445,-1.1194919994604167
-0.022242961165411967,-0.5883676210769754,0.3904758513195474,0.1404860786210945,0.005972862534408697,0.09777849629244756,0.33579360926848306,-1.1423197503930713
-0.030262511871106148,-0.5871889821889065,0.3940945692908324,0.168518167727289,-0.004240837248359993,0.11063855318253085,0.34929054981191543,-1.167036366167296
-0.020531693813882722,-0.5801043802107326,0.38243684962508834,0.16330097096146315,-0.001672878983253341,0.11572501738339316,0.3760584864027381,-1.087001412719118
-0.016930739875253228,-0.5987882728123703,0.3955296098659963,0.13466255021447512,-0.004781966306971301,0.13514139007872047,0.37869971679562975,-1.1459260644210232
-0.015787432821796146,-0.598035380361215,0.3947285889605018,0.16518013294839795,0.012838111254801998,0.09267023018701487,0.3822588341380172,-1.128921605052345
-0.014175825980834996,-0.600702093723146,0.39551481361340013,0.14219190888313227,0.002426252797913628,0.1141479779401422,0.36459056732544953,-1.1491630904416588
-0.014221594381965066,-0.5695233021291437,0.3979473436412179,0.13093283578808254,0.021515793973888246,0.11024493980211449,0.36566785460066425,-1.0478678012556695
-0.022759414129815612,-0.5763902895212908,0.3841632734703323,0.16165468668413502,0.001578861527065671,0.14679479382613958,0.3765695438873384,-1.123962002073013
-0.0064457647377245235,-0.5937322242204536,0.371945215706766,0.15109434618464124,0.01155268115473316,0.08668462011359586,0.35694696044478064,-1.1096387336434497
-0.019834454604598317,-0.5814195647443435,0.3930422960464908,0.15773101775696002,0.03211136236862747,0.10700872558058618,0.3641771957187044,-1.109122734420418
-0.01190659335749445,-0.5851029597687878,0.4397174630863526,0.1718903922618271,0.018137858040948758,0.10859482296035716,0.4074733803347795,-1.086964358494254
-0.010171515560183387,-0.575963145790638,0.3893369697740777,0.16271779791297436,0.00234900784193495,0.08811441066921677,0.3651166501583916,-1.1336520020871184
-0.01256085372607668,-0.5773668238652376,0.38931376372952226,0.15868522288805725,-0.0032400710814624307,0.10068501190489733,0.3787580914345036,-1.1433246660842145
-0.007302801845730562,-0.5709064946822304,0.37304857249678264,0.16929946560252018,0.016485447691488117,0.11368944693799686,0.4515854689730106,-1.1082908553925415
-0.011150950578926098,-0.5650790159896093,0.4215409389535482,0.16046759624253007,0.0065895083156916065,0.12346554583180741,0.38851651207573823,-1.0659215838120464
-0.0209048071501461,-0.5836020755745001,0.41855195625771596,0.16417373063246354,0.0308648872044483,0.10244603245873071,0.33592686213015494,-1.1659889732556066
-0.0042207748491354495,-0.5764445657945899,0.3909854091322834,0.19091447465669797,0.019259231053494807,0.11493344236526878,0.3832165726628838,-1.1260079126881142
-0.018041659546637005,-0.5738180259365313,0.4078520858362878,0.16000543594739014,0.007249848310248394,0.1173734396858637,0.38511611982648103,-1.074362901156352
-0.009944781373016057,-0.5756123763181356,0.41160240054589553,0.1547964810157714,-0.0022337959885583626,0.11139077323905912,0.3815059094015257,-1.1473543509879318
-0.016314444660072206,-0.5747655376911571,0.3941324887497788,0.16600866656657526,0.015895581007690552,0.10974792864246119,0.40130230189576643,-1.1347882258843531
-0.023789061094681218,-0.5634619391458389,0.4006371503606997,0.1542608606016749,0.025588110516770197,0.12661820677209354,0.4032922198322311,-1.10260787046023
-0.025699184017458465,-0.5759205154216909,0.38906277841015213,0.18620851770822994,0.017579591037665713,0.12315444982979205,0.4046585270415131,-1.1423720668311335
-0.010367198084309807,-0.5678177887124298,0.43683070405203467,0.17739883323299221,0.013588600598452114,0.1186815435561696,0.4152956219250657,-1.1000841907529137
-0.011090108864107143,-0.5697964753551059,0.43172269984384487,0.1754709716925692,0.017603077915559113,0.12318946848617146,0.3747698725514922,-1.1193609916556764
-0.0058671617253450116,-0.579571195021689,0.388222828840048,0.19845859389788853,-0.012882272018887293,0.14306861482312327,0.3821247997909596,-1.0912568930060533
-0.007371459842220065,-0.5650290973593919,0.3886628735322808,0.16453365298923361,0.021482316688346832,0.13456436521479165,0.39086039804785144,-1.13229648609353
-1.706272449666152E-4,-0.5830159284711564,0.41725258070092053,0.18137778266936908,0.02411992327257291,0.1525573454745754,0.4155281151562685,-1.113918377419923
-0.007326067143950517,-0.5530881508934995,0.3953443997721549,0.16179232614813072,0.02308091620695464,0.14498706023008065,0.41224856134530974,-1.0814154108191318
-0.004399153428017329,-0.5593099134777787,0.42194955550440333,0.17633050449952298,0.013170834467482236,0.1534533972902866,0.4033222203638251,-1.0897759164967726
-0.00138298514114906,-0.5642734370950407,0.38794493396617125,0.17485802561507552,0.006528098964364191,0.11488691670263261,0.39176040185946237,-1.1414782160744852
-0.015335410881139657,-0.546971934503902,0.41292107031017383,0.15451740109424114,0.03770569952560455,0.13653447626172874,0.3623863212995532,-1.0632462471699589
-0.006658655124529233,-0.565996016078645,0.39072980413749414,0.15942835720226217,0.014650494707859896,0.09625885713722052,0.40561570541127634,-1.07532928238763
-0.006256299014251715,-0.5752773062251094,0.4176119752607047,0.15417715618725647,0.010855774471753978,0.11298923230235366,0.43129520605890714,-1.082785282199554
-0.007018626817397126,-0.5546010503870225,0.41704637198486744,0.16133847601917417,0.033224005949971464,0.13626209119696506,0.3935233290297432,-1.1425958638140745
0.006706661822202198,-0.5577178338082619,0.3842250967037001,0.15817477491669646,0.010073590849039226,0.11897672854609417,0.4632684362046681,-1.0863415052602876
-0.003977716804747049,-0.5704733373699117,0.42565702594084626,0.1593429712636952,0.02248929857373295,0.14501912336415312,0.3928307836416099,-1.1440018370600993
0.008005619749900682,-0.5619577172964866,0.4332119227287219,0.16205294578105986,0.026050028486441716,0.0903639246920796,0.35803075559110986,-1.1087904987239352
0.005161019429484027,-0.5502458092808792,0.40901194618045605,0.16863757188978587,0.011827108530273992,0.11071508584971966,0.45543308401516774,-1.0709029864095545
0.0019912670161721315,-0.5546926812030784,0.40890395511452543,0.12485774076461549,0.004659733376253497,0.14769940692393305,0.40420931046696246,-1.0865212972894027
-0.0014607304037637877,-0.5276850369877354,0.42150774967688703,0.16266734746004746,0.029020292244198383,0.10861529238380216,0.3641932548101399,-1.163026327507143
0.004488529300556139,-0.5597352692058977,0.41685522012238396,0.1754126614052027,0.01828856629607896,0.12059489332500165,0.4109846292738763,-1.1160713408993215
0.002861807689670641,-0.5307596485115768,0.42166929676283443,0.17696489886233407,0.03307472139798972,0.1412029474329345,0.4082766233964126,-1.0862590253003983
-0.002330683109103213,-0.5675446789788549,0.4052681432248165,0.15514940590066287,0.031237827526090643,0.13693900157020472,0.3291843671002059,-1.0813334273702169
-0.011447085837024345,-0.5606366075057592,0.3961532531276228,0.14552644273146909,0.012156699232660186,0.1187975440182631,0.37247039983765007,-1.1214959247002403
-0.009049489143210836,-0.5566674484202677,0.4168496633076558,0.17881386507141603,0.03743669068027318,0.1547563277771727,0.42402596562007405,-1.0727354999778376
-0.006491485916835393,-0.531429628898311,0.4047363593568786,0.1721845086149376,0.03729654623240662,0.14045242269984248,0.37286903298523555,-1.0641193063049112
0.004742864562792579,-0.5507581287686869,0.4111075210799831,0.17127988271263278,0.028907727939033068,0.12910652035374806,0.4021862476489288,-1.134132251885471
-0.011186744091781055,-0.5659673192043289,0.42406477360394074,0.18645019183101963,0.028130253250713874,0.1270279336790067,0.41266598416062095,-1.0930147589338328
-0.007441269759257247,-0.5321647120446552,0.4308456004136646,0.18327272901304845,0.0422858820503187,0.1223094128238676,0.4007974479640062,-1.1267920921604893
-6.536306624994191E-4,-0.5450170169129273,0.4064999297045282,0.15737770126491923,0.007943723328403278,0.17143501962298668,0.39787502612636744,-1.0743023577450812
-6.486357812521034E-4,-0.5501606581689481,0.40696140521338847,0.1588894098537024,0.0196438862025028,0.11651650868045083,0.41350356179405146,-1.0938946255009248
-8.62515390675862E-4,-0.5648529309131052,0.4188264582491808,0.1575341317625496,0.027215462469560272,0.13335141537203757,0.42476105101259287,-1.1043653663662485
-0.008492717809538945,-0.5588868889980523,0.38996920496851695,0.15854931003097,0.025273522494441588,0.14654839376109055,0.3864660065721989,-1.0587996754365356
-0.020756506101605558,-0.554253445013804,0.39356294841524314,0.16332156980813978,0.019081843389379745,0.11325995427103892,0.440053236172956,-1.0359639722486709
-0.003746532398858596,-0.5556769968013953,0.38948132892072895,0.15939390841100215,0.029221655016348543,0.11805596550785519,0.394398689990577,-1.139526753781195
-0.009603659772773637,-0.5401491491461352,0.4319956937980366,0.17913791451177388,0.02514004691013873,0.14363446447413952,0.3806198841992219,-1.1015353827397718
0.004388047474861485,-0.5462070978565452,0.41012369114765107,0.18365041542851124,0.03771820669652038,0.14165240557616343,0.3701980008921081,-1.1222746386413798
-0.00857321943658537,-0.5713464961245077,0.43397463209154513,0.17117972741364088,0.016250056198616348,0.13461790912597058,0.36709618664990395,-1.1232481013199733
-0.01670004356297673,-0.5638056783336297,0.42161403490465477,0.15990788600220643,0.02832169993808447,0.15198732737834741,0.3559600371315549,-1.113766814613949
-0.010975314862688674,-0.5568434566733456,0.397431102081798,0.15883703149688444,0.016556855994819927,0.14575101106295313,0.4003829824144665,-1.0305554881732801
-0.0055268293558527835,-0.548980530595984,0.4058191695477879,0.15817587270133374,0.02873241301451412,0.13215608367861997,0.4490719994318234,-1.0907008626272736
-0.017687048564742992,-0.5692653323387292,0.41255011257281304,0.16356141751279774,-8.299566209681749E-4,0.11378754637389295,0.3819783878883503,-1.1164626405186349
-0.004013086477581114,-0.5598872267633791,0.42721377007236316,0.1441959323333665,0.011048063556269333,0.16009914438260073,0.396473754367304,-1.0396465384612426
-0.015078876258556442,-0.5452842589769169,0.38622080274645326,0.1346943753790737,0.012746475063220677,0.1310044639548458,0.34944454557174787,-1.1166026653136698
-0.012252078426266206,-0.5546729423571736,0.4045795396422203,0.1676328826210352,0.020508625055589785,0.14159099133999886,0.43115781321818347,-1.0670838529155477
-0.011814407746247356,-0.5593606868452335,0.40873499827456844,0.1777046665902048,0.022887477185286473,0.15589558770271672,0.4147336482319999,-1.1492276299966264
-0.013360821524301784,-0.5566188820691639,0.39120068195960117,0.14004259443296788,0.04721274938687803,0.1407032425611958,0.41673978476483653,-1.0492711490470394
-0.009307542029634026,-0.5460147539943448,0.4159992020680502,0.16797668523878517,0.026808193690167178,0.12734569442873228,0.36964468763740504,-1.077238057941641
-0.006403717385872154,-0.5704545550345421,0.4400755771253472,0.14090005945092218,0.017436956364469507,0.14285858240684188,0.3601700789929055,-1.1101611574735368
-0.002454661819641269,-0.5789084330352846,0.41553183274332073,0.14695787191831478,0.01636944631735007,0.15272303574763485,0.3932003323996013,-1.0164446775529399
-0.0030351872775971813,-0.5648887343827579,0.40296053612962884,0.14731739693637733,0.029475737074065506,0.13873369252061643,0.37178694404725743,-1.052932955920394
0.0026512197405589018,-0.556074532236789,0.4301775812844208,0.16131723754912644,0.032270811585320656,0.1532791075910466,0.38744195041395985,-1.0859096845393363
-0.020925940742896654,-0.5591880865766878,0.3922340689349747,0.15925012330307725,0.03631259076144756,0.11741860407460811,0.42059675478611946,-1.1382804641715154
-0.01409764791478156,-0.5675477830148088,0.38915347159569685,0.14091951935461827,0.03133404830068078,0.18136793455745123,0.42397820294229904,-1.1116736189860223
-0.0138949954056024,-0.5570990626748363,0.4164979511286799,0.16672962485145093,0.041607569139433316,0.13375897707091125,0.38239958572314237,-1.0417843899504633
-0.01239705894629371,-0.5674263546025099,0.39297613299861855,0.12480036448595329,0.02852440174809862,0.127972639645478,0.3858678286252929,-1.112773338221686
-0.0034177563768090094,-0.5553300521319863,0.40198566488394216,0.15818793232705608,0.021937798590884395,0.12807326224743096,0.39392131654248425,-1.089487259550815
-0.01096139789346295,-0.558974510261708,0.39510403141829303,0.16128569881645136,0.024319791686518967,0.13665541271940507,0.4079562195618677,-1.073627617654377
-0.011039021412106914,-0.5405090461797408,0.3843242127383314,0.1076185577935307,0.03458490117658248,0.13617272176298403,0.4595430694475343,-1.1206604078167044
-0.016353969389429117,-0.5597097512818605,0.3869112085730701,0.14443373245833765,0.029019555877498687,0.14835172551839326,0.40749006484615197,-1.1322265703278558
2.4357960609278274E-4,-0.5658791562450299,0.38594291909053857,0.13691418591558394,0.033975118276812745,0.1245439712433102,0.4641939968278546,-1.0834959947422185
-0.006079492570046281,-0.5467713395910309,0.3979925904021218,0.13909074192218282,0.03349995839559142,0.13482290738901828,0.4441784145231266,-1.0489249045498181
-0.0018963272605814457,-0.5597978344508061,0.4005283061596837,0.15244027556368964,0.03739668022380835,0.15118000554898764,0.3485438977145702,-1.1169894285279784
8.234972421868604E-4,-0.5491501209565984,0.4132056895512647,0.16167045144584768,0.041522594728590524,0.14272396191302927,0.39938243652882727,-1.150824034331786
-0.006779432418173877,-0.5704284355451797,0.41283090848520904,0.14006212602855236,0.041971768316614956,0.15578602687043164,0.4000597169767594,-1.106638645762141
-0.014345775116400809,-0.5556931737789809,0.41233284174931734,0.1483797519445792,0.02973486870963279,0.14886074330193866,0.4222959916671531,-1.076948000620641
-0.002494942692589229,-0.5603672939840132,0.40850626653542316,0.14610688533108512,0.017893765100457565,0.12228464105156794,0.39057043848817086,-1.0561924136697327
-0.00716584148676133,-0.5735595160305775,0.41914251850833517,0.1478135780556599,0.020718205380494167,0.13012625142229015,0.4456123671151191,-1.1047654824144015
-0.016963695823616617,-0.5493577718541962,0.4165839726377077,0.1529143279190522,0.04634082779629961,0.17628706228575758,0.41597308574172676,-1.083096538629147
-0.008473844437639617,-0.5508796221476576,0.40949665123145224,0.14838456399983316,0.026168079335796405,0.137066394658774,0.397344525890659,-1.0632595505987321
-0.0207648761678732,-0.5446443547893332,0.40212344296247804,0.12372038071214338,0.04007440259080646,0.1365312060633863,0.4536450474652906,-1.1033567550473633
-0.015071664721897216,-0.5595485419965814,0.41811838853839867,0.1640093852645514,0.023455223531984714,0.13638306833943573,0.44334003903844876,-1.0904297391645548
-0.016345245289698898,-0.5576331753411502,0.43164186488989964,0.14227521157729311,0.03426221129467888,0.14944798843951143,0.4336248935426136,-1.056910685534737
-0.004784118252688426,-0.5369829753977261,0.40415761661028893,0.1178713813399679,0.03339800335417686,0.1204566230567223,0.4286269861094564,-1.0788965899322036
-0.007901073686639457,-0.5411595721890234,0.41717224852093654,0.13919412922279778,-0.010996369251232043,0.1480305971897509,0.391964100412466,-1.023406278161844
-0.008115749866871075,-0.5601700279036123,0.3795261172318021,0.13000143706024575,0.028452160021825063,0.14750999870798684,0.43382616948211405,-1.088111965127516
-0.00861825654631422,-0.5508362241096086,0.41622913427703134,0.16017660106482626,0.0038302945494707707,0.15028103814610808,0.4005360024713811,-1.0813034784959716
-0.02084976657761411,-0.5378392610728331,0.3905985483158835,0.1465399562806462,0.025087322183803013,0.12850231496867534,0.41244102385521775,-1.0979771654579418
-0.01575938221167012,-0.5598931431593197,0.41631334749769583,0.155015266423769,-5.767749476844477E-5,0.12350138539013342,0.3622867892805317,-1.07951189351944
-0.005393175736149992,-0.5453933738667196,0.4029495455130738,0.135608969179492,0.024679969476940126,0.17120382498112224,0.39469181635978495,-1.0699868783084798
-0.0022927517472668187,-0.5419086395749695,0.37619173034782705,0.143637860864981,0.019832959909390928,0.13083555120511764,0.3843542583983995,-1.1085111212922092
-0.008660930043229258,-0.5627345009649644,0.3789171414352413,0.16526252459678903,0.02138497219535475,0.10818750848728725,0.3897914047586287,-1.0395886822098703
-0.022578357297420262,-0.552253437289421,0.4220197130121505,0.136931766013917,-0.0014622385626631102,0.12425141037924887,0.43506268570188766,-1.1120116788635843
-0.030587700997077326,-0.5473835827916472,0.40554066474693456,0.1407446123820796,0.02750077823930508,0.10477489360180799,0.4562560977478529,-1.0631402879886869
-0.01782067859492182,-0.557761681704201,0.4112142729417081,0.15442446952253597,0.03090553353150582,0.13112213303507972,0.3972655914827006,-1.091085410587446
-0.017868193357344804,-0.5628884668066347,0.37611495961582203,0.1501977811135025,0.029344208769348266,0.08234748395735272,0.3923219371195381,-1.108174471833813
-0.013975653878245953,-0.549268353764121,0.3927953579596355,0.15203680787132579,0.025743790044140135,0.12461484443966371,0.3639013442068075,-1.0753782523664408
-0.013526992753795158,-0.5479639248852575,0.41380560809580436,0.14300484259706597,0.011569351905411768,0.13193854811965688,0.37689055859170734,-1.097400860818494
-0.015052708386984137,-0.5318836589957726,0.4174958422309919,0.1553693028904162,0.04551899495237768,0.13429147498188646,0.360111119353375,-1.0993130528951998
-0.010097363909481351,-0.5276595374650819,0.39450528063974044,0.1405926567604772,-0.004807179669617178,0.09686744384677637,0.3394702876262333,-1.138400313181751
-0.017677529457452018,-0.5523425113821397,0.41230598587588674,0.1603801665454961,0.03276184325265822,0.12403516035623184,0.4003756138404257,-1.0798855380362014
-0.008156872046368523,-0.5593385086373294,0.40822171906930127,0.16182148651997252,0.016872902399749083,0.120659589450291,0.3596476763433143,-1.0992548981279435
-0.020373010055132673,-0.5572872356226928,0.4087806167202403,0.17159506793127782,0.024293950508563613,0.11079319488122367,0.32642790351703066,-1.093770318832866
-0.019387979930307983,-0.5695865612269234,0.42690585381050344,0.15659146235585994,0.01803558284052823,0.13471008156630412,0.3918189611670287,-1.1397316023242883
-0.02088689752563101,-0.5517763160226703,0.40489694705259777,0.16662727126638968,0.04032538159059734,0.1278068893372385,0.40380804808479037,-1.09385101122487
-0.023439934446760794,-0.5590090757009987,0.41548059068056437,0.17233288602091126,0.027689345989558654,0.12582716150829482,0.3837129424826264,-1.074184197862645
-0.020598017446481723,-0.5663121436865179,0.41576184669654903,0.12929487840337098,-0.007283164821825095,0.12387930323385979,0.37018079681985844,-1.1090943549784549
-0.021903745425148988,-0.5740911398763633,0.39622023574844634,0.14298829996894558,0.014107297673115133,0.07724829242080708,0.3780370509971796,-1.0965931477460287
-0.02734983869839147,-0.5508638320975163,0.39708877380643637,0.16635421446580118,0.02586311907809444,0.0936924287509855,0.37634396634379885,-1.0713014934541407
-0.012729853115269894,-0.5575820469471211,0.40736274623653224,0.15792297357213167,0.04538113333669628,0.11515051128562775,0.3929745676272224,-1.0915153181900583
-0.023555946804499173,-0.5496826765035693,0.3960586487447079,0.16259109652101772,0.022323180279021793,0.06850646724058161,0.3957942551561289,-1.0783296721495728
-0.0237431411757562,-0.5603998285237187,0.43001412065669936,0.13776276150591246,0.012281647648837594,0.07545633046328491,0.3774159805112774,-1.1044952646501152
-0.022507675788149543,-0.5658324797350984,0.37070271226354956,0.16215531772634761,0.01720148344210349,0.11467295423774372,0.34150354763647894,-1.0967270750749691
-0.02024061595262417,-0.5668231662362521,0.42051694578369714,0.13155326825066804,0.009556059177155138,0.12561898201520302,0.39089273903174115,-1.105052102147821
-0.020027961274230163,-0.5507905635754148,0.39050125946995146,0.15618617142848573,0.009281762488295316,0.10014292944666309,0.3947743647213334,-1.1257526849719968
-0.021160916485797963,-0.5634712805004858,0.36656030626030456,0.15139928498311317,0.02274624284956142,0.11915057140116182,0.4274986997083233,-1.1076022959544987
-0.013040802024720686,-0.5735231791321742,0.4118993044136912,0.16208015988540952,-0.012458638204559062,0.08463433337531158,0.3750316217523132,-1.1239239392703817
-0.013349238531802431,-0.5665475221939961,0.40940665889990285,0.14950244367508872,0.0070411585308112505,0.07896353653977983,0.37754848678026814,-1.0841940801197854
-0.013543439133722133,-0.5469286671300322,0.42694578134441435,0.157908332929661,0.021312850885409525,0.10717706914005161,0.40248306617410595,-1.1411000514285223
-0.014270507798912322,-0.5470817386929442,0.4394434677300793,0.14827405226048998,-0.014161837025466324,0.11624339757064246,0.3890909798770024,-1.0674979164765392
-0.03044254698255486,-0.5360734392833343,0.39273325947717674,0.1615209077985716,0.029197537663548025,0.11727713388510683,0.41715444464247803,-1.0300744610198918
-0.029814810709928287,-0.5632971597478379,0.411477767788458,0.16145254803675574,0.003502312768265283,0.10444943811532247,0.34097266701381074,-1.0963820138226565
-0.02012544950379199,-0.576077102776892,0.3864874150752588,0.17524753033635287,0.013732330986580787,0.07272674968810527,0.3825108607086611,-1.1202430425018206
-0.01530882479331857,-0.555039268154866,0.3839192815788912,0.1558186669492906,0.019694945903707205,0.09932135029399529,0.37941657079626995,-1.131189688578039
-0.019162401154913713,-0.5434959823478458,0.41211224435648963,0.18225844050279472,-1.3973489686864822E-4,0.12482161929893683,0.42718920616293676,-1.1510943179945226
-0.011988288028360102,-0.551605897429785,0.421051345213211,0.17662143028091168,3.716873655366389E-5,0.11369706774770821,0.39396182425015663,-1.1461084671900663
-0.019351225758295485,-0.5700504555331466,0.4151811800329056,0.1842036431788793,0.009039746297931913,0.09301678500197409,0.41538790690966193,-1.1347812567916282
-0.016909735731619694,-0.5454783664067615,0.3916848082134738,0.17116250140517472,-0.010575787653135452,0.09058249810165765,0.3589782162844358,-1.0808708772333675
-0.017314187141228073,-0.5397908161970074,0.40379258856224665,0.15662620629793927,0.013075633756318579,0.08294757136410542,0.3511892979143039,-1.0791174086795619
-0.022706633024285133,-0.5724199398019609,0.3860276588545458,0.1697011096014912,0.0017100864370371734,0.1022146100267365,0.38967549286024133,-1.1527148243610992
-0.020055834409474903,-0.541056450278775,0.39141768394733034,0.16666752025247866,4.330800934343836E-4,0.08506906430905367,0.358319561537224,-1.120081689480807
-0.024538817065630353,-0.5506172608827683,0.3988705422542658,0.14311487635621273,-0.0015321929056098054,0.09293452693782528,0.39793310735221143,-1.1159648961638922
-0.01857870479045414,-0.560486485179758,0.39074218371352887,0.15622859105600007,-0.0015825708046996812,0.07286477824175212,0.37036878036751303,-1.1584412415548395
-0.013531834790532507,-0.5705103991612079,0.40483189996872215,0.15519292389491937,-0.011858647766237022,0.05218390772651381,0.35257135455709476,-1.1913653852364572
-0.02402154688585762,-0.5468212018174456,0.362275865105604,0.16487106260324808,0.016512191856219882,0.09845891660836066,0.40894306106338674,-1.064683439216428
-0.023656098769700908,-0.5335140120958497,0.3947639027815633,0.15245963214307162,0.013618983056640534,0.06842750930129904,0.3433110229812986,-1.1048252105616356
-0.014450311099986372,-0.5591725236173358,0.39878704328872766,0.17831967939314083,0.009363332938809098,0.07385461931453072,0.34941193332822773,-1.1699971790433008
-0.03202353956096865,-0.5589219359222132,0.38543194718832147,0.16770022234169538,0.014229183246160581,0.08981489142252405,0.3726151910020349,-1.1328315622082883
-0.030717269251610727,-0.5541716310294416,0.3770537241968624,0.13000634706562497,0.002473042286322163,0.06746774955109221,0.3916065765673833,-1.1133772797124992
-0.022743949767713663,-0.5467290978130512,0.388731783537533,0.12806140696969115,9.348795628775245E-4,0.06600099254796009,0.33768916403279814,-1.11512473093248
-0.02622349609854808,-0.5626868140585667,0.39457218816977374,0.15696828681892563,0.006250802191277954,0.03866519482119193,0.32805414314600495,-1.145043035508172
-0.02009194738511266,-0.5410774778520845,0.4051720776571635,0.14954857825185816,-0.012290294621574735,0.08504943772288816,0.33042421157063673,-1.1480376886998
-0.02073736885316315,-0.5435174625763967,0.4049676481299313,0.14867336301422723,-0.008447287361332621,0.014226097566244234,0.3269898504774231,-1.1114744113203339
-0.01607425421018093,-0.5666345263113621,0.3919508877947891,0.1325294521890701,0.002122002988137466,0.06297701110757567,0.3239677746535886,-1.1614149102145668
-0.023471099950350016,-0.5650457919794023,0.40570200024709563,0.11713516711120765,-0.008313098405569952,0.015029600464734895,0.3035057715367078,-1.1103362552985885
-0.02708030970962191,-0.5634503273785157,0.35731452128244157,0.1202330979829853,-0.002168717950901369,0.021280819402034093,0.32916089930616904,-1.0701282278231266
-0.0267881200652936,-0.5579282167922616,0.3843533941174699,0.12944973825224912,-0.012896242316927974,0.039074817378497044,0.32994174909015317,-1.1286970781130703
-0.03128981568432966,-0.5551795964313934,0.37739664433151937,0.15236457948332238,-0.008281971790167876,0.022330030774300656,0.3157527905878218,-1.1750855156481497
-0.026109590229256654,-0.5521857644205149,0.3689780551735571,0.1395451934996442,-0.011265933476309846,0.041364272049506816,0.3285074300629961,-1.1214401618193843
-0.026459132839265202,-0.5553469132021435,0.3649875995508762,0.11709948384381985,-0.0017663587387975088,0.02773720172438681,0.29324164613331083,-1.1432199981207511
-0.029746032018113076,-0.5612651790979276,0.36569962544670387,0.11625571277923132,-0.01139354206340943,0.008796681481480871,0.31980891718594184,-1.1099082240621014
-0.025313684676582036,-0.5676367164557699,0.36455716159228396,0.13908040988647588,-0.012466153027844346,0.019130893786151404,0.317478492156424,-1.1724597196428732
-0.030867795223443927,-0.5434328971999909,0.37912579380689987,0.11134456802321195,-0.02224675487467183,0.045008038646838625,0.3109095091886261,-1.1223367315832327
-0.025275269413084396,-0.554277612950987,0.37048676681560544,0.12049450895880762,-0.007608194413338918,0.02743025161188587,0.30084306738497324,-1.1444106733214328
-0.028553259949105174,-0.5730459557419465,0.3348437431435296,0.11411528301390331,-0.0042083041927090965,0.018002429218124172,0.27344473721304274,-1.1878180457715959
-0.033784165413979286,-0.5745951440020786,0.37390076576037523,0.10851572060241221,-0.021206989190094994,0.03327523408873719,0.29440706082265705,-1.1497609719415107
-0.03428168425212949,-0.5689784899398559,0.3773339369949488,0.11677261590055521,-0.01633564902270071,0.008833341329365422,0.3270157264468037,-1.1568089496516405
-0.028328598448440007,-0.5765382915896737,0.3435819761217709,0.10169802794826979,-0.017316409238370238,-0.0014933633435144748,0.32676121083187226,-1.125184774788714
-0.030157421373994023,-0.5816739787046289,0.36468710277104577,0.11730489329084186,-0.01414621400142243,0.011792124611091978,0.2517196345261339,-1.172151502610219
-0.036013391761441395,-0.5718183841029253,0.3776668100367516,0.09881850356141586,-0.006300287027296375,0.053281543707245124,0.3093682130371723,-1.1993192620580266
-0.043533010230439206,-0.5689037215264908,0.3671764744244875,0.12307666842346368,-0.016602389876424917,0.02842647997493535,0.28318457021509663,-1.0892974090193568
-0.03971314246491757,-0.5768693243086579,0.39683357441355455,0.1091556935372108,-0.0086959148678119,0.03787597692235928,0.32944761208760887,-1.1792760103493845
-0.03399289011077015,-0.5739093521266144,0.3631490448714785,0.11697604486460429,-0.014880403580921187,0.011799854780812722,0.2980834216012752,-1.1828754710068574
-0.030313347819596288,-0.5870713506841777,0.3644015054056916,0.14071470934305091,-0.0032345631569850983,0.040512025781748465,0.34671907306240635,-1.1207450910580563
-0.033389588258334865,-0.5848214207642329,0.37811544072251224,0.0982727826867772,-0.009647940632209352,0.07047269716542207,0.3414681871659684,-1.0943275827992394
-0.03234875935216731,-0.5879705531543828,0.35712480947578956,0.1092925829058967,0.0055568678910876725,0.015881671963547617,0.34104180025245767,-1.1578030084227762
-0.022295214857192998,-0.5774989202574932,0.3776216860770957,0.135593664824723,-0.012931437202431189,0.036816254335915885,0.33553889638449513,-1.1696961398650414
-0.033673047691253004,-0.5677682215584338,0.3119716240066161,0.14633883939443376,-0.01806898228503621,0.048973696660998024,0.2948283177461807,-1.103081251440731
-0.0246593277987181,-0.5761600042008063,0.35740540959773376,0.11184930724597475,-5.796753548872498E-4,0.07458796389611719,0.3100789403922853,-1.108733097623562
-0.034539775509365295,-0.5780990963865141,0.3325999546751517,0.10176870902302419,-0.026013781411039525,0.013657834202887556,0.3358882093092414,-1.1602849730525742
-0.03799182910019644,-0.587656724450412,0.33762359433467115,0.12030193838383013,-0.010114579374731633,0.014576433544984528,0.31515707067094906,-1.1600300396093184
-0.0297483925041085,-0.5728747594092312,0.37352552300433867,0.10653274860764071,-0.005007260467584063,0.033362419450937035,0.340285190214235,-1.1453836723310025
-0.020894345730177087,-0.5766900234248795,0.3547860398599645,0.098141394016469,0.015781335770467007,0.05798670913543418,0.3422009208839298,-1.1600428982035245
-0.02730270845755011,-0.575688341820605,0.3664703794007839,0.12905906980797677,-0.02132924820638317,0.018274462605797608,0.3222210581833091,-1.2003071839557005
